1893.000000
1894.000000
1890.000000
1890.000000
1888.000000
1889.000000
1885.000000
1885.000000
1889.000000
1894.000000
1893.000000
1899.000000
1901.000000
1903.000000
1903.000000
1904.000000
1903.000000
1904.000000
1901.000000
1899.000000
1899.000000
1894.000000
1891.000000
1895.000000
1893.000000
1894.000000
1899.000000
1892.000000
1891.000000
1895.000000
1894.000000
1899.000000
1897.000000
1895.000000
1893.000000
1891.000000
1891.000000
1888.000000
1887.000000
1889.000000
1886.000000
1883.000000
1883.000000
1879.000000
1882.000000
1883.000000
1883.000000
1883.000000
1885.000000
1886.000000
1888.000000
1899.000000
1890.000000
1891.000000
1889.000000
1891.000000
1891.000000
1889.000000
1889.000000
1887.000000
1883.000000
1883.000000
1879.000000
1888.000000
1891.000000
1891.000000
1890.000000
1894.000000
1893.000000
1894.000000
1895.000000
1895.000000
1891.000000
1894.000000
1893.000000
1891.000000
1891.000000
1893.000000
1890.000000
1888.000000
1886.000000
1887.000000
1894.000000
1890.000000
1895.000000
1899.000000
1898.000000
1894.000000
1895.000000
1902.000000
1897.000000
1899.000000
1899.000000
1895.000000
1901.000000
1904.000000
1902.000000
1901.000000
1903.000000
1903.000000
1901.000000
1900.000000
1895.000000
1891.000000
1893.000000
1892.000000
1889.000000
1888.000000
1887.000000
1886.000000
1885.000000
1884.000000
1885.000000
1885.000000
1888.000000
1891.000000
1891.000000
1893.000000
1893.000000
1890.000000
1898.000000
1898.000000
1895.000000
1899.000000
1891.000000
1896.000000
1895.000000
1897.000000
1894.000000
1893.000000
1898.000000
1894.000000
1899.000000
1895.000000
1890.000000
1894.000000
1886.000000
1892.000000
1889.000000
1887.000000
1889.000000
1887.000000
1884.000000
1883.000000
1883.000000
1877.000000
1876.000000
1875.000000
1874.000000
1872.000000
1872.000000
1876.000000
1875.000000
1882.000000
1884.000000
1888.000000
1894.000000
1899.000000
1901.000000
1901.000000
1903.000000
1900.000000
1904.000000
1902.000000
1900.000000
1899.000000
1895.000000
1895.000000
1893.000000
1895.000000
1890.000000
1895.000000
1895.000000
1896.000000
1895.000000
1893.000000
1895.000000
1899.000000
1894.000000
1895.000000
1889.000000
1893.000000
1902.000000
1895.000000
1895.000000
1895.000000
1898.000000
1900.000000
1898.000000
1903.000000
1902.000000
1904.000000
1905.000000
1904.000000
1904.000000
1903.000000
1904.000000
1902.000000
1903.000000
1901.000000
1902.000000
1899.000000
1901.000000
1897.000000
1898.000000
1901.000000
1899.000000
1894.000000
1898.000000
1893.000000
1894.000000
1894.000000
1893.000000
1894.000000
1891.000000
1893.000000
1895.000000
1903.000000
1903.000000
1903.000000
1904.000000
1906.000000
1903.000000
1903.000000
1904.000000
1899.000000
1892.000000
1891.000000
1890.000000
1890.000000
1890.000000
1890.000000
1894.000000
1895.000000
1901.000000
1901.000000
1902.000000
1904.000000
1905.000000
1904.000000
1904.000000
1905.000000
1907.000000
1907.000000
1905.000000
1904.000000
1906.000000
1903.000000
1904.000000
1908.000000
1904.000000
1904.000000
1901.000000
1901.000000
1895.000000
1897.000000
1891.000000
1886.000000
1888.000000
1885.000000
1886.000000
1887.000000
1887.000000
1894.000000
1895.000000
1899.000000
1900.000000
1904.000000
1904.000000
1905.000000
1911.000000
1906.000000
1904.000000
1904.000000
1904.000000
1904.000000
1901.000000
1902.000000
1899.000000
1903.000000
1902.000000
1898.000000
1899.000000
1895.000000
1892.000000
1891.000000
1892.000000
1886.000000
1885.000000
1888.000000
1886.000000
1894.000000
1893.000000
1893.000000
1895.000000
1890.000000
1896.000000
1895.000000
1891.000000
1890.000000
1889.000000
1895.000000
1895.000000
1893.000000
1891.000000
1895.000000
1897.000000
1898.000000
1895.000000
1895.000000
1895.000000
1895.000000
1899.000000
1898.000000
1895.000000
1895.000000
1894.000000
1894.000000
1894.000000
1897.000000
1896.000000
1898.000000
1900.000000
1900.000000
1901.000000
1901.000000
1901.000000
1900.000000
1897.000000
1905.000000
1904.000000
1902.000000
1897.000000
1903.000000
1893.000000
1888.000000
1886.000000
1887.000000
1885.000000
1885.000000
1887.000000
1891.000000
1889.000000
1886.000000
1891.000000
1893.000000
1891.000000
1895.000000
1894.000000
1904.000000
1899.000000
1898.000000
1899.000000
1897.000000
1894.000000
1895.000000
1897.000000
1893.000000
1891.000000
1891.000000
1890.000000
1891.000000
1889.000000
1893.000000
1891.000000
1890.000000
1889.000000
1899.000000
1897.000000
1898.000000
1894.000000
1892.000000
1894.000000
1891.000000
1891.000000
1894.000000
1887.000000
1887.000000
1885.000000
1883.000000
1883.000000
1883.000000
1879.000000
1881.000000
1883.000000
1882.000000
1885.000000
1886.000000
1891.000000
1891.000000
1895.000000
1897.000000
1898.000000
1903.000000
1902.000000
1903.000000
1903.000000
1903.000000
1902.000000
1899.000000
1895.000000
1895.000000
1890.000000
1891.000000
1888.000000
1890.000000
1889.000000
1889.000000
1893.000000
1892.000000
1893.000000
1897.000000
1890.000000
1891.000000
1887.000000
1893.000000
1889.000000
1889.000000
1892.000000
1895.000000
1891.000000
1892.000000
1892.000000
1898.000000
1897.000000
1894.000000
1899.000000
1897.000000
1903.000000
1904.000000
1904.000000
1899.000000
1904.000000
1903.000000
1903.000000
1890.000000
1893.000000
1888.000000
1890.000000
1888.000000
1886.000000
1887.000000
1885.000000
1887.000000
1891.000000
1890.000000
1889.000000
1891.000000
1893.000000
1894.000000
1893.000000
1891.000000
1891.000000
1893.000000
1894.000000
1888.000000
1889.000000
1895.000000
1894.000000
1895.000000
1899.000000
1898.000000
1899.000000
1899.000000
1897.000000
1901.000000
1900.000000
1901.000000
1895.000000
1892.000000
1895.000000
1894.000000
1893.000000
1889.000000
1886.000000
1887.000000
1887.000000
1886.000000
1888.000000
1877.000000
1883.000000
1879.000000
1881.000000
1886.000000
1892.000000
1885.000000
1891.000000
1889.000000
1895.000000
1895.000000
1901.000000
1906.000000
1904.000000
1902.000000
1904.000000
1902.000000
1903.000000
1901.000000
1901.000000
1898.000000
1893.000000
1895.000000
1894.000000
1890.000000
1886.000000
1888.000000
1890.000000
1888.000000
1886.000000
1887.000000
1894.000000
1882.000000
1893.000000
1893.000000
1888.000000
1877.000000
1889.000000
1889.000000
1887.000000
1886.000000
1883.000000
1884.000000
1879.000000
1881.000000
1874.000000
1879.000000
1879.000000
1878.000000
1881.000000
1882.000000
1883.000000
1889.000000
1885.000000
1885.000000
1883.000000
1887.000000
1887.000000
1885.000000
1887.000000
1887.000000
1900.000000
1894.000000
1895.000000
1895.000000
1892.000000
1898.000000
1897.000000
1897.000000
1895.000000
1894.000000
1893.000000
1892.000000
1889.000000
1889.000000
1885.000000
1889.000000
1889.000000
1889.000000
1889.000000
1883.000000
1884.000000
1886.000000
1887.000000
1887.000000
1883.000000
1885.000000
1888.000000
1890.000000
1891.000000
1887.000000
1890.000000
1890.000000
1890.000000
1889.000000
1886.000000
1889.000000
1888.000000
1886.000000
1886.000000
1883.000000
1889.000000
1893.000000
1895.000000
1895.000000
1899.000000
1899.000000
1903.000000
1904.000000
1904.000000
1904.000000
1904.000000
1904.000000
1903.000000
1901.000000
1888.000000
1895.000000
1892.000000
1890.000000
1885.000000
1885.000000
1885.000000
1884.000000
1883.000000
1884.000000
1885.000000
1885.000000
1886.000000
1887.000000
1889.000000
1889.000000
1891.000000
1892.000000
1899.000000
1895.000000
1898.000000
1899.000000
1894.000000
1896.000000
1893.000000
1892.000000
1890.000000
1885.000000
1889.000000
1884.000000
1886.000000
1887.000000
1879.000000
1886.000000
1888.000000
1891.000000
1892.000000
1895.000000
1894.000000
1894.000000
1894.000000
1894.000000
1889.000000
1899.000000
1890.000000
1894.000000
1875.000000
1887.000000
1891.000000
1894.000000
1889.000000
1889.000000
1889.000000
1890.000000
1891.000000
1888.000000
1890.000000
1893.000000
1895.000000
1894.000000
1893.000000
1894.000000
1887.000000
1895.000000
1893.000000
1894.000000
1893.000000
1889.000000
1894.000000
1893.000000
1894.000000
1894.000000
1888.000000
1894.000000
1892.000000
1889.000000
1889.000000
1881.000000
1895.000000
1883.000000
1879.000000
1879.000000
1872.000000
1881.000000
1882.000000
1886.000000
1881.000000
1885.000000
1889.000000
1894.000000
1895.000000
1894.000000
1899.000000
1894.000000
1894.000000
1893.000000
1895.000000
1886.000000
1888.000000
1886.000000
1886.000000
1886.000000
1886.000000
1885.000000
1885.000000
1887.000000
1887.000000
1889.000000
1892.000000
1891.000000
1892.000000
1889.000000
1887.000000
1887.000000
1884.000000
1882.000000
1885.000000
1883.000000
1879.000000
1885.000000
1885.000000
1883.000000
1886.000000
1887.000000
1884.000000
1890.000000
1889.000000
1889.000000
1887.000000
1889.000000
1893.000000
1897.000000
1895.000000
1898.000000
1897.000000
1899.000000
1903.000000
1904.000000
1904.000000
1904.000000
1906.000000
1907.000000
1904.000000
1907.000000
1902.000000
1903.000000
1901.000000
1894.000000
1900.000000
1895.000000
1898.000000
1895.000000
1890.000000
1896.000000
1891.000000
1887.000000
1887.000000
1883.000000
1883.000000
1876.000000
1882.000000
1876.000000
1875.000000
1885.000000
1888.000000
1889.000000
1895.000000
1893.000000
1897.000000
1898.000000
1895.000000
1895.000000
1894.000000
1897.000000
1893.000000
1894.000000
1894.000000
1888.000000
1892.000000
1895.000000
1894.000000
1887.000000
1891.000000
1897.000000
1890.000000
1895.000000
1898.000000
1894.000000
1901.000000
1899.000000
1901.000000
1900.000000
1902.000000
1902.000000
1904.000000
1904.000000
1903.000000
1904.000000
1904.000000
1905.000000
1907.000000
1904.000000
1904.000000
1904.000000
1904.000000
1904.000000
1903.000000
1893.000000
1901.000000
1895.000000
1890.000000
1890.000000
1887.000000
1887.000000
1886.000000
1886.000000
1886.000000
1885.000000
1889.000000
1894.000000
1895.000000
1897.000000
1902.000000
1902.000000
1903.000000
1904.000000
1904.000000
1902.000000
1904.000000
1905.000000
1904.000000
1901.000000
1895.000000
1901.000000
1901.000000
1899.000000
1887.000000
1893.000000
1903.000000
1898.000000
1899.000000
1892.000000
1890.000000
1894.000000
1891.000000
1890.000000
1886.000000
1886.000000
1887.000000
1889.000000
1889.000000
1890.000000
1887.000000
1894.000000
1894.000000
1895.000000
1894.000000
1894.000000
1901.000000
1902.000000
1904.000000
1903.000000
1898.000000
1910.000000
1904.000000
1902.000000
1901.000000
1895.000000
1899.000000
1895.000000
1894.000000
1895.000000
1889.000000
1897.000000
1895.000000
1895.000000
1894.000000
1891.000000
1894.000000
1895.000000
1893.000000
1894.000000
1893.000000
1895.000000
1895.000000
1902.000000
1899.000000
1895.000000
1901.000000
1900.000000
1901.000000
1904.000000
1899.000000
1904.000000
1902.000000
1903.000000
1902.000000
1905.000000
1897.000000
1893.000000
1889.000000
1889.000000
1889.000000
1895.000000
1895.000000
1897.000000
1898.000000
1894.000000
1899.000000
1900.000000
1901.000000
1903.000000
1900.000000
1904.000000
1903.000000
1902.000000
1901.000000
1898.000000
1899.000000
1887.000000
1895.000000
1900.000000
1903.000000
1903.000000
1904.000000
1904.000000
1904.000000
1903.000000
1901.000000
1895.000000
1895.000000
1891.000000
1890.000000
1891.000000
1887.000000
1889.000000
1890.000000
1895.000000
1903.000000
1894.000000
1895.000000
1894.000000
1892.000000
1895.000000
1893.000000
1899.000000
1886.000000
1889.000000
1887.000000
1889.000000
1894.000000
1891.000000
1885.000000
1888.000000
1891.000000
1898.000000
1892.000000
1890.000000
1893.000000
1893.000000
1890.000000
1887.000000
1888.000000
1887.000000
1886.000000
1883.000000
1885.000000
1881.000000
1886.000000
1891.000000
1897.000000
1893.000000
1895.000000
1899.000000
1898.000000
1902.000000
1899.000000
1897.000000
1902.000000
1899.000000
1899.000000
1901.000000
1897.000000
1897.000000
1897.000000
1895.000000
1901.000000
1891.000000
1894.000000
1898.000000
1896.000000
1904.000000
1885.000000
1894.000000
1880.000000
1886.000000
1881.000000
1878.000000
1877.000000
1877.000000
1873.000000
1882.000000
1874.000000
1879.000000
1886.000000
1886.000000
1893.000000
1894.000000
1902.000000
1901.000000
1900.000000
1898.000000
1902.000000
1904.000000
1903.000000
1912.000000
1905.000000
1898.000000
1899.000000
1894.000000
1892.000000
1888.000000
1888.000000
1887.000000
1886.000000
1887.000000
1885.000000
1889.000000
1891.000000
1889.000000
1899.000000
1902.000000
1905.000000
1904.000000
1911.000000
1907.000000
1907.000000
1904.000000
1901.000000
1904.000000
1903.000000
1902.000000
1903.000000
1902.000000
1903.000000
1904.000000
1900.000000
1902.000000
1895.000000
1900.000000
1902.000000
1894.000000
1896.000000
1899.000000
1900.000000
1900.000000
1897.000000
1901.000000
1900.000000
1900.000000
1899.000000
1899.000000
1899.000000
1891.000000
1896.000000
1893.000000
1893.000000
1899.000000
1895.000000
1895.000000
1899.000000
1901.000000
1898.000000
1902.000000
1902.000000
1904.000000
1901.000000
1904.000000
1898.000000
1895.000000
1893.000000
1890.000000
1881.000000
1885.000000
1883.000000
1882.000000
1883.000000
1883.000000
1898.000000
1890.000000
1895.000000
1895.000000
1894.000000
1901.000000
1903.000000
1902.000000
1902.000000
1904.000000
1900.000000
1904.000000
1902.000000
1900.000000
1897.000000
1901.000000
1902.000000
1904.000000
1901.000000
1897.000000
1901.000000
1894.000000
1899.000000
1894.000000
1888.000000
1890.000000
1887.000000
1887.000000
1885.000000
1885.000000
1891.000000
1893.000000
1898.000000
1895.000000
1899.000000
1917.000000
1905.000000
1904.000000
1904.000000
1897.000000
1900.000000
1900.000000
1895.000000
1899.000000
1887.000000
1887.000000
1887.000000
1889.000000
1889.000000
1884.000000
1888.000000
1891.000000
1891.000000
1889.000000
1887.000000
1906.000000
1894.000000
1893.000000
1898.000000
1890.000000
1897.000000
1897.000000
1895.000000
1900.000000
1904.000000
1898.000000
1893.000000
1897.000000
1897.000000
1895.000000
1894.000000
1892.000000
1891.000000
1894.000000
1893.000000
1895.000000
1893.000000
1895.000000
1898.000000
1889.000000
1894.000000
1894.000000
1894.000000
1895.000000
1899.000000
1899.000000
1898.000000
1898.000000
1901.000000
1895.000000
1894.000000
1893.000000
1892.000000
1886.000000
1888.000000
1889.000000
1886.000000
1885.000000
1884.000000
1885.000000
1885.000000
1888.000000
1887.000000
1888.000000
1888.000000
1888.000000
1886.000000
1891.000000
1892.000000
1894.000000
1894.000000
1904.000000
1899.000000
1910.000000
1918.000000
1915.000000
1915.000000
1918.000000
1910.000000
1909.000000
1904.000000
1908.000000
1904.000000
1904.000000
1906.000000
1906.000000
1906.000000
1905.000000
1904.000000
1906.000000
1906.000000
1904.000000
1904.000000
1900.000000
1901.000000
1895.000000
1897.000000
1895.000000
1894.000000
1895.000000
1898.000000
1899.000000
1899.000000
1898.000000
1899.000000
1901.000000
1901.000000
1900.000000
1903.000000
1904.000000
1904.000000
1903.000000
1904.000000
1904.000000
1904.000000
1903.000000
1903.000000
1903.000000
1901.000000
1895.000000
1902.000000
1904.000000
1901.000000
1901.000000
1904.000000
1903.000000
1902.000000
1904.000000
1905.000000
1904.000000
1907.000000
1907.000000
1909.000000
1909.000000
1905.000000
1905.000000
1904.000000
1904.000000
1899.000000
1903.000000
1900.000000
1889.000000
1901.000000
1903.000000
1905.000000
1906.000000
1911.000000
1907.000000
1905.000000
1907.000000
1903.000000
1904.000000
1902.000000
1902.000000
1902.000000
1902.000000
1900.000000
1899.000000
1900.000000
1899.000000
1898.000000
1901.000000
1900.000000
1900.000000
1896.000000
1899.000000
1904.000000
1897.000000
1894.000000
1891.000000
1895.000000
1897.000000
1897.000000
1891.000000
1890.000000
1895.000000
1899.000000
1897.000000
1901.000000
1904.000000
1902.000000
1901.000000
1902.000000
1899.000000
1895.000000
1901.000000
1898.000000
1901.000000
1904.000000
1897.000000
1898.000000
1903.000000
1901.000000
1902.000000
1904.000000
1904.000000
1904.000000
1904.000000
1905.000000
1901.000000
1911.000000
1909.000000
1904.000000
1916.000000
1903.000000
1904.000000
1901.000000
1904.000000
1901.000000
1899.000000
1904.000000
1901.000000
1906.000000
1905.000000
1907.000000
1907.000000
1904.000000
1910.000000
1904.000000
1904.000000
1904.000000
1901.000000
1901.000000
1900.000000
1897.000000
1899.000000
1902.000000
1901.000000
1904.000000
1904.000000
1904.000000
1909.000000
1906.000000
1909.000000
1904.000000
1910.000000
1911.000000
1914.000000
1911.000000
1906.000000
1911.000000
1910.000000
1914.000000
1914.000000
1913.000000
1909.000000
1909.000000
1904.000000
1904.000000
1900.000000
1904.000000
1897.000000
1897.000000
1895.000000
1895.000000
1898.000000
1899.000000
1900.000000
1899.000000
1901.000000
1902.000000
1903.000000
1904.000000
1904.000000
1904.000000
1909.000000
1906.000000
1911.000000
1914.000000
1910.000000
1910.000000
1909.000000
1906.000000
1910.000000
1907.000000
1904.000000
1906.000000
1904.000000
1905.000000
1904.000000
1904.000000
1904.000000
1902.000000
1902.000000
1901.000000
1904.000000
1902.000000
1899.000000
1894.000000
1904.000000
1893.000000
1899.000000
1899.000000
1898.000000
1897.000000
1900.000000
1902.000000
1900.000000
1901.000000
1900.000000
1901.000000
1899.000000
1899.000000
1899.000000
1898.000000
1895.000000
1892.000000
1889.000000
1887.000000
1886.000000
1891.000000
1879.000000
1877.000000
1881.000000
1882.000000
1890.000000
1893.000000
1898.000000
1901.000000
1901.000000
1904.000000
1906.000000
1904.000000
1905.000000
1903.000000
1903.000000
1902.000000
1903.000000
1899.000000
1902.000000
1899.000000
1901.000000
1900.000000
1900.000000
1899.000000
1898.000000
1899.000000
1899.000000
1892.000000
1890.000000
1887.000000
1887.000000
1885.000000
1879.000000
1881.000000
1872.000000
1882.000000
1879.000000
1887.000000
1889.000000
1894.000000
1900.000000
1899.000000
1887.000000
1902.000000
1901.000000
1888.000000
1899.000000
1894.000000
1890.000000
1893.000000
1892.000000
1891.000000
1891.000000
1892.000000
1895.000000
1893.000000
1895.000000
1898.000000
1894.000000
1899.000000
1902.000000
1902.000000
1904.000000
1898.000000
1901.000000
1903.000000
1900.000000
1891.000000
1890.000000
1893.000000
1892.000000
1889.000000
1889.000000
1890.000000
1887.000000
1885.000000
1885.000000
1889.000000
1881.000000
1889.000000
1890.000000
1892.000000
1894.000000
1895.000000
1901.000000
1900.000000
1901.000000
1904.000000
1903.000000
1903.000000
1904.000000
1903.000000
1903.000000
1900.000000
1904.000000
1901.000000
1895.000000
1899.000000
1894.000000
1886.000000
1881.000000
1882.000000
1875.000000
1872.000000
1879.000000
1883.000000
1887.000000
1888.000000
1893.000000
1895.000000
1895.000000
1898.000000
1899.000000
1892.000000
1899.000000
1895.000000
1896.000000
1895.000000
1888.000000
1889.000000
1885.000000
1882.000000
1882.000000
1882.000000
1887.000000
1885.000000
1888.000000
1891.000000
1894.000000
1898.000000
1903.000000
1904.000000
1904.000000
1904.000000
1904.000000
1899.000000
1897.000000
1890.000000
1886.000000
1888.000000
1883.000000
1885.000000
1881.000000
1877.000000
1879.000000
1886.000000
1883.000000
1884.000000
1883.000000
1888.000000
1885.000000
1889.000000
1889.000000
1887.000000
1892.000000
1890.000000
1890.000000
1884.000000
1881.000000
1884.000000
1884.000000
1882.000000
1888.000000
1881.000000
1885.000000
1887.000000
1891.000000
1891.000000
1889.000000
1889.000000
1888.000000
1887.000000
1883.000000
1879.000000
1878.000000
1877.000000
1875.000000
1879.000000
1877.000000
1882.000000
1883.000000
1883.000000
1887.000000
1888.000000
1891.000000
1889.000000
1889.000000
1888.000000
1883.000000
1887.000000
1887.000000
1887.000000
1890.000000
1890.000000
1882.000000
1896.000000
1893.000000
1895.000000
1898.000000
1895.000000
1893.000000
1891.000000
1891.000000
1891.000000
1888.000000
1875.000000
1890.000000
1885.000000
1885.000000
1884.000000
1879.000000
1881.000000
1870.000000
1877.000000
1886.000000
1893.000000
1891.000000
1904.000000
1892.000000
1901.000000
1898.000000
1904.000000
1904.000000
1895.000000
1896.000000
1894.000000
1891.000000
1892.000000
1889.000000
1889.000000
1887.000000
1884.000000
1884.000000
1883.000000
1879.000000
1878.000000
1880.000000
1878.000000
1877.000000
1892.000000
1882.000000
1883.000000
1891.000000
1885.000000
1892.000000
1890.000000
1895.000000
1897.000000
1895.000000
1895.000000
1895.000000
1891.000000
1890.000000
1888.000000
1891.000000
1892.000000
1890.000000
1893.000000
1887.000000
1893.000000
1900.000000
1895.000000
1895.000000
1891.000000
1889.000000
1889.000000
1885.000000
1882.000000
1877.000000
1885.000000
1887.000000
1890.000000
1895.000000
1898.000000
1901.000000
1904.000000
1903.000000
1901.000000
1893.000000
1886.000000
1882.000000
1875.000000
1875.000000
1876.000000
1870.000000
1889.000000
1894.000000
1904.000000
1903.000000
1902.000000
1903.000000
1904.000000
1903.000000
1899.000000
1901.000000
1899.000000
1899.000000
1901.000000
1893.000000
1898.000000
1890.000000
1898.000000
1898.000000
1895.000000
1898.000000
1899.000000
1898.000000
1899.000000
1900.000000
1904.000000
1902.000000
1901.000000
1901.000000
1897.000000
1897.000000
1895.000000
1891.000000
1890.000000
1888.000000
1893.000000
1895.000000
1899.000000
1899.000000
1903.000000
1906.000000
1906.000000
1910.000000
1913.000000
1911.000000
1911.000000
1911.000000
1911.000000
1915.000000
1911.000000
1908.000000
1914.000000
1913.000000
1914.000000
1911.000000
1908.000000
1905.000000
1904.000000
1901.000000
1895.000000
1894.000000
1902.000000
1889.000000
1890.000000
1881.000000
1883.000000
1882.000000
1866.000000
1877.000000
1875.000000
1878.000000
1883.000000
1883.000000
1887.000000
1892.000000
1904.000000
1915.000000
1904.000000
1911.000000
1902.000000
1898.000000
1899.000000
1893.000000
1890.000000
1879.000000
1887.000000
1889.000000
1888.000000
1890.000000
1889.000000
1894.000000
1894.000000
1893.000000
1894.000000
1890.000000
1898.000000
1895.000000
1899.000000
1901.000000
1903.000000
1910.000000
1917.000000
1918.000000
1920.000000
1919.000000
1923.000000
1922.000000
1920.000000
1918.000000
1915.000000
1914.000000
1911.000000
1904.000000
1902.000000
1888.000000
1887.000000
1883.000000
1882.000000
1882.000000
1877.000000
1883.000000
1885.000000
1890.000000
1891.000000
1893.000000
1891.000000
1891.000000
1873.000000
1887.000000
1879.000000
1889.000000
1882.000000
1872.000000
1885.000000
1879.000000
1882.000000
1879.000000
1883.000000
1879.000000
1883.000000
1878.000000
1877.000000
1884.000000
1877.000000
1875.000000
1875.000000
1872.000000
1868.000000
1863.000000
1862.000000
1861.000000
1862.000000
1869.000000
1877.000000
1891.000000
1900.000000
1907.000000
1919.000000
1919.000000
1918.000000
1910.000000
1904.000000
1887.000000
1879.000000
1871.000000
1871.000000
1872.000000
1877.000000
1891.000000
1902.000000
1906.000000
1919.000000
1917.000000
1917.000000
1911.000000
1897.000000
1906.000000
1894.000000
1888.000000
1884.000000
1877.000000
1878.000000
1873.000000
1872.000000
1873.000000
1881.000000
1886.000000
1894.000000
1903.000000
1905.000000
1911.000000
1914.000000
1911.000000
1910.000000
1904.000000
1899.000000
1893.000000
1886.000000
1876.000000
1871.000000
1847.000000
1841.000000
1852.000000
1856.000000
1861.000000
1869.000000
1878.000000
1887.000000
1888.000000
1889.000000
1878.000000
1874.000000
1867.000000
1859.000000
1858.000000
1859.000000
1860.000000
1872.000000
1872.000000
1872.000000
1872.000000
1877.000000
1882.000000
1888.000000
1897.000000
1904.000000
1915.000000
1920.000000
1920.000000
1919.000000
1905.000000
1902.000000
1886.000000
1880.000000
1866.000000
1862.000000
1857.000000
1866.000000
1854.000000
1855.000000
1853.000000
1859.000000
1860.000000
1869.000000
1872.000000
1883.000000
1890.000000
1895.000000
1899.000000
1904.000000
1904.000000
1893.000000
1887.000000
1872.000000
1865.000000
1851.000000
1843.000000
1839.000000
1840.000000
1838.000000
1839.000000
1840.000000
1845.000000
1855.000000
1863.000000
1872.000000
1879.000000
1886.000000
1887.000000
1888.000000
1884.000000
1874.000000
1872.000000
1863.000000
1859.000000
1863.000000
1857.000000
1856.000000
1856.000000
1855.000000
1854.000000
1850.000000
1839.000000
1824.000000
1808.000000
1803.000000
1798.000000
1805.000000
1823.000000
1845.000000
1872.000000
1903.000000
1930.000000
1951.000000
1969.000000
1982.000000
1975.000000
1963.000000
1936.000000
1911.000000
1888.000000
1871.000000
1860.000000
1857.000000
1863.000000
1868.000000
1875.000000
1882.000000
1883.000000
1881.000000
1872.000000
1862.000000
1844.000000
1826.000000
1810.000000
1802.000000
1792.000000
1790.000000
1783.000000
1778.000000
1775.000000
1765.000000
1763.000000
1762.000000
1773.000000
1907.000000
1920.000000
1939.000000
1951.000000
1962.000000
1951.000000
1953.000000
1938.000000
1922.000000
1899.000000
1875.000000
1851.000000
1830.000000
1792.000000
1758.000000
1741.000000
1731.000000
1745.000000
1776.000000
1823.000000
1863.000000
1909.000000
1929.000000
1945.000000
1939.000000
1917.000000
1885.000000
1846.000000
1824.000000
1802.000000
1794.000000
1791.000000
1785.000000
1776.000000
1757.000000
1746.000000
1742.000000
1744.000000
1739.000000
1731.000000
1716.000000
1703.000000
1682.000000
1666.000000
1646.000000
1642.000000
1646.000000
1664.000000
1694.000000
1728.000000
1776.000000
1799.000000
1808.000000
1795.000000
1780.000000
1774.000000
1793.000000
1817.000000
1850.000000
1901.000000
1941.000000
1984.000000
2000.000000
2000.000000
1984.000000
1949.000000
1886.000000
1804.000000
1711.000000
1619.000000
1564.000000
1534.000000
1554.000000
1614.000000
1693.000000
1809.000000
1922.000000
2003.000000
2133.000000
2201.000000
2241.000000
2246.000000
2219.000000
2150.000000
2036.000000
1905.000000
1785.000000
1679.000000
1603.000000
1569.000000
1535.000000
1559.000000
1589.000000
1627.000000
1659.000000
1698.000000
1722.000000
1743.000000
1761.000000
1777.000000
1793.000000
1805.000000
1818.000000
1825.000000
1829.000000
1825.000000
1808.000000
1783.000000
1757.000000
1722.000000
1683.000000
1643.000000
1607.000000
1591.000000
1597.000000
1629.000000
1665.000000
1711.000000
1733.000000
1746.000000
1751.000000
1759.000000
1757.000000
1754.000000
1745.000000
1743.000000
1776.000000
1798.000000
1808.000000
1819.000000
1822.000000
1822.000000
1820.000000
1808.000000
1769.000000
1729.000000
1690.000000
1659.000000
1626.000000
1611.000000
1607.000000
1629.000000
1655.000000
1720.000000
1759.000000
1815.000000
1858.000000
1888.000000
1902.000000
1883.000000
1872.000000
1857.000000
1835.000000
1791.000000
1723.000000
1635.000000
1535.000000
1466.000000
1424.000000
1424.000000
1468.000000
1532.000000
1589.000000
1645.000000
1697.000000
1758.000000
1821.000000
1867.000000
1909.000000
1950.000000
1977.000000
2004.000000
2003.000000
1986.000000
1947.000000
1918.000000
1852.000000
1779.000000
1719.000000
1648.000000
1614.000000
1601.000000
1609.000000
1648.000000
1705.000000
1783.000000
1847.000000
1872.000000
1857.000000
1810.000000
1760.000000
1709.000000
1673.000000
1647.000000
1631.000000
1621.000000
1611.000000
1600.000000
1587.000000
1569.000000
1555.000000
1561.000000
1584.000000
1645.000000
1724.000000
1826.000000
1920.000000
1989.000000
2082.000000
2142.000000
2185.000000
2201.000000
2177.000000
2107.000000
2006.000000
1898.000000
1779.000000
1655.000000
1535.000000
1436.000000
1382.000000
1364.000000
1394.000000
1439.000000
1535.000000
1664.000000
1784.000000
1890.000000
1988.000000
2073.000000
2114.000000
2111.000000
2098.000000
2062.000000
2002.000000
1954.000000
1897.000000
1858.000000
1816.000000
1772.000000
1717.000000
1674.000000
1630.000000
1603.000000
1594.000000
1609.000000
1633.000000
1666.000000
1696.000000
1723.000000
1754.000000
1763.000000
1719.000000
1658.000000
1509.000000
1403.000000
1315.000000
1263.000000
1263.000000
1324.000000
1456.000000
1641.000000
1840.000000
1991.000000
2190.000000
2285.000000
2283.000000
2214.000000
2098.000000
1969.000000
1841.000000
1755.000000
1718.000000
1695.000000
1695.000000
1680.000000
1633.000000
1567.000000
1493.000000
1459.000000
1485.000000
1557.000000
1655.000000
1779.000000
1906.000000
2013.000000
2083.000000
2093.000000
2064.000000
1955.000000
1846.000000
1738.000000
1630.000000
1502.000000
1380.000000
1267.000000
1213.000000
1207.000000
1276.000000
1361.000000
1555.000000
1782.000000
2022.000000
2256.000000
2434.000000
2547.000000
2539.000000
2419.000000
2217.000000
1957.000000
1730.000000
1535.000000
1423.000000
1387.000000
1424.000000
1516.000000
1603.000000
1645.000000
1636.000000
1593.000000
1535.000000
1485.000000
1453.000000
1468.000000
1505.000000
1610.000000
1675.000000
1791.000000
1859.000000
1906.000000
1935.000000
1883.000000
1791.000000
1685.000000
1600.000000
1527.000000
1483.000000
1415.000000
1341.000000
1297.000000
1296.000000
1377.000000
1554.000000
1804.000000
2097.000000
2361.000000
2646.000000
2825.000000
2929.000000
2940.000000
2909.000000
2832.000000
2675.000000
2431.000000
2042.000000
1611.000000
1232.000000
790.000000
463.000000
341.000000
420.000000
678.000000
1098.000000
1623.000000
2178.000000
2686.000000
3088.000000
3317.000000
3494.000000
3427.000000
3280.000000
3071.000000
2878.000000
2617.000000
2368.000000
2126.000000
1900.000000
1648.000000
1408.000000
1227.000000
1007.000000
879.000000
823.000000
847.000000
977.000000
1201.000000
1479.000000
1715.000000
1984.000000
2167.000000
2291.000000
2354.000000
2367.000000
2320.000000
2191.000000
2001.000000
1801.000000
1560.000000
1352.000000
1142.000000
1072.000000
1104.000000
1206.000000
1471.000000
1818.000000
2140.000000
2434.000000
2669.000000
2782.000000
2831.000000
2750.000000
2598.000000
2442.000000
2218.000000
2057.000000
1936.000000
1884.000000
1857.000000
1850.000000
1849.000000
1856.000000
1840.000000
1808.000000
1758.000000
1712.000000
1687.000000
1669.000000
1690.000000
1735.000000
1759.000000
1766.000000
1678.000000
1486.000000
1312.000000
997.000000
769.000000
590.000000
510.000000
572.000000
736.000000
1118.000000
1555.000000
2031.000000
2430.000000
2842.000000
3117.000000
3278.000000
3312.000000
3228.000000
3057.000000
2862.000000
2604.000000
2288.000000
1947.000000
1719.000000
1367.000000
1243.000000
1190.000000
1228.000000
1311.000000
1471.000000
1631.000000
1778.000000
1921.000000
2000.000000
2013.000000
1937.000000
1785.000000
1645.000000
1408.000000
1279.000000
1209.000000
1223.000000
1296.000000
1474.000000
1680.000000
1877.000000
2061.000000
2218.000000
2333.000000
2430.000000
2516.000000
2554.000000
2513.000000
2375.000000
2193.000000
1983.000000
1802.000000
1675.000000
1623.000000
1644.000000
1721.000000
1823.000000
1904.000000
1932.000000
1920.000000
1860.000000
1766.000000
1681.000000
1616.000000
1611.000000
1631.000000
1663.000000
1696.000000
1775.000000
1869.000000
1979.000000
2112.000000
2245.000000
2369.000000
2466.000000
2512.000000
2503.000000
2391.000000
2267.000000
2022.000000
1798.000000
1589.000000
1423.000000
1350.000000
1354.000000
1367.000000
1344.000000
1281.000000
1191.000000
1126.000000
1104.000000
1171.000000
1297.000000
1503.000000
1722.000000
2011.000000
2241.000000
2416.000000
2478.000000
2458.000000
2354.000000
2231.000000
2110.000000
2002.000000
1965.000000
1979.000000
2033.000000
2131.000000
2224.000000
2299.000000
2368.000000
2395.000000
2395.000000
2368.000000
2290.000000
2182.000000
2039.000000
1902.000000
1776.000000
1679.000000
1625.000000
1600.000000
1600.000000
1615.000000
1655.000000
1709.000000
1743.000000
1789.000000
1822.000000
1856.000000
1888.000000
1917.000000
1936.000000
1909.000000
1846.000000
1759.000000
1649.000000
1535.000000
1402.000000
1296.000000
1242.000000
1257.000000
1331.000000
1521.000000
1741.000000
1944.000000
2137.000000
2291.000000
2397.000000
2457.000000
2473.000000
2454.000000
2449.000000
2430.000000
2400.000000
2363.000000
2323.000000
2261.000000
2211.000000
2125.000000
2027.000000
1931.000000
1836.000000
1757.000000
1710.000000
1681.000000
1675.000000
1681.000000
1715.000000
1735.000000
1751.000000
1755.000000
1770.000000
1783.000000
1818.000000
1863.000000
1911.000000
1951.000000
2001.000000
2026.000000
2031.000000
2017.000000
1978.000000
1900.000000
1825.000000
1723.000000
1649.000000
1595.000000
1570.000000
1581.000000
1621.000000
1696.000000
1780.000000
1870.000000
1941.000000
1997.000000
2037.000000
2064.000000
2073.000000
2068.000000
2046.000000
2019.000000
1985.000000
1942.000000
1870.000000
1798.000000
1746.000000
1683.000000
1662.000000
1679.000000
1707.000000
1749.000000
1802.000000
1840.000000
1872.000000
1885.000000
1884.000000
1872.000000
1867.000000
1878.000000
1894.000000
1911.000000
1918.000000
1934.000000
1941.000000
1938.000000
1939.000000
1936.000000
1936.000000
1935.000000
1921.000000
1910.000000
1879.000000
1872.000000
1860.000000
1847.000000
1840.000000
1835.000000
1834.000000
1815.000000
1829.000000
1828.000000
1822.000000
1813.000000
1810.000000
1803.000000
1797.000000
1797.000000
1805.000000
1811.000000
1825.000000
1840.000000
1853.000000
1855.000000
1857.000000
1863.000000
1862.000000
1859.000000
1860.000000
1862.000000
1856.000000
1856.000000
1858.000000
1847.000000
1842.000000
1840.000000
1829.000000
1814.000000
1802.000000
1790.000000
1779.000000
1779.000000
1787.000000
1802.000000
1822.000000
1840.000000
1859.000000
1871.000000
1875.000000
1879.000000
1872.000000
1863.000000
1843.000000
1839.000000
1830.000000
1821.000000
1817.000000
1816.000000
1821.000000
1834.000000
1850.000000
1857.000000
1866.000000
1872.000000
1872.000000
1871.000000
1865.000000
1856.000000
1853.000000
1845.000000
1840.000000
1839.000000
1835.000000
1835.000000
1839.000000
1840.000000
1840.000000
1823.000000
1830.000000
1831.000000
1823.000000
1818.000000
1814.000000
1813.000000
1825.000000
1829.000000
1836.000000
1840.000000
1847.000000
1840.000000
1838.000000
1827.000000
1821.000000
1813.000000
1810.000000
1802.000000
1805.000000
1808.000000
1808.000000
1815.000000
1819.000000
1826.000000
1829.000000
1829.000000
1829.000000
1827.000000
1826.000000
1825.000000
1822.000000
1824.000000
1823.000000
1825.000000
1822.000000
1826.000000
1827.000000
1834.000000
1825.000000
1827.000000
1825.000000
1826.000000
1824.000000
1825.000000
1823.000000
1825.000000
1827.000000
1825.000000
1827.000000
1825.000000
1828.000000
1825.000000
1824.000000
1824.000000
1822.000000
1818.000000
1817.000000
1819.000000
1821.000000
1825.000000
1829.000000
1835.000000
1838.000000
1840.000000
1838.000000
1836.000000
1835.000000
1830.000000
1830.000000
1828.000000
1827.000000
1826.000000
1825.000000
1838.000000
1826.000000
1814.000000
1808.000000
1809.000000
1808.000000
1805.000000
1806.000000
1808.000000
1819.000000
1827.000000
1835.000000
1838.000000
1840.000000
1840.000000
1837.000000
1836.000000
1825.000000
1826.000000
1820.000000
1817.000000
1814.000000
1808.000000
1809.000000
1813.000000
1818.000000
1825.000000
1830.000000
1838.000000
1837.000000
1834.000000
1822.000000
1817.000000
1813.000000
1815.000000
1817.000000
1824.000000
1830.000000
1840.000000
1840.000000
1845.000000
1842.000000
1835.000000
1831.000000
1824.000000
1823.000000
1823.000000
1823.000000
1831.000000
1837.000000
1837.000000
1839.000000
1829.000000
1825.000000
1821.000000
1815.000000
1811.000000
1808.000000
1811.000000
1813.000000
1804.000000
1822.000000
1831.000000
1840.000000
1841.000000
1840.000000
1842.000000
1840.000000
1840.000000
1840.000000
1838.000000
1837.000000
1834.000000
1839.000000
1835.000000
1839.000000
1830.000000
1827.000000
1828.000000
1825.000000
1832.000000
1833.000000
1830.000000
1838.000000
1840.000000
1837.000000
1840.000000
1842.000000
1845.000000
1844.000000
1835.000000
1845.000000
1843.000000
1843.000000
1842.000000
1840.000000
1840.000000
1840.000000
1842.000000
1841.000000
1845.000000
1842.000000
1845.000000
1849.000000
1856.000000
1855.000000
1857.000000
1857.000000
1859.000000
1862.000000
1857.000000
1856.000000
1856.000000
1855.000000
1854.000000
1851.000000
1853.000000
1851.000000
1847.000000
1849.000000
1850.000000
1853.000000
1849.000000
1854.000000
1856.000000
1855.000000
1856.000000
1856.000000
1867.000000
1857.000000
1857.000000
1858.000000
1856.000000
1859.000000
1856.000000
1857.000000
1864.000000
1857.000000
1861.000000
1859.000000
1863.000000
1865.000000
1859.000000
1865.000000
1851.000000
1861.000000
1861.000000
1856.000000
1857.000000
1856.000000
1856.000000
1855.000000
1856.000000
1857.000000
1857.000000
1859.000000
1862.000000
1868.000000
1867.000000
1869.000000
1874.000000
1875.000000
1878.000000
1882.000000
1885.000000
1886.000000
1889.000000
1890.000000
1891.000000
1887.000000
1890.000000
1888.000000
1886.000000
1881.000000
1872.000000
1879.000000
1879.000000
1878.000000
1879.000000
1879.000000
1881.000000
1879.000000
1881.000000
1879.000000
1882.000000
1879.000000
1881.000000
1881.000000
1879.000000
1879.000000
1877.000000
1878.000000
1878.000000
1878.000000
1881.000000
1883.000000
1885.000000
1887.000000
1892.000000
1901.000000
1903.000000
1903.000000
1904.000000
1904.000000
1907.000000
1902.000000
1901.000000
1897.000000
1895.000000
1896.000000
1890.000000
1893.000000
1893.000000
1898.000000
1903.000000
1904.000000
1904.000000
1904.000000
1907.000000
1909.000000
1909.000000
1910.000000
1908.000000
1910.000000
1914.000000
1911.000000
1911.000000
1906.000000
1907.000000
1906.000000
1906.000000
1905.000000
1900.000000
1904.000000
1910.000000
1905.000000
1910.000000
1913.000000
1917.000000
1920.000000
1920.000000
1922.000000
1920.000000
1930.000000
1909.000000
1920.000000
1919.000000
1918.000000
1915.000000
1917.000000
1909.000000
1910.000000
1908.000000
1914.000000
1919.000000
1924.000000
1927.000000
1934.000000
1936.000000
1936.000000
1936.000000
1934.000000
1926.000000
1923.000000
1917.000000
1915.000000
1911.000000
1910.000000
1910.000000
1908.000000
1906.000000
1904.000000
1910.000000
1909.000000
1911.000000
1915.000000
1919.000000
1920.000000
1925.000000
1928.000000
1931.000000
1936.000000
1924.000000
1927.000000
1927.000000
1931.000000
1925.000000
1924.000000
1925.000000
1927.000000
1930.000000
1930.000000
1935.000000
1935.000000
1937.000000
1937.000000
1942.000000
1943.000000
1952.000000
1947.000000
1946.000000
1943.000000
1937.000000
1936.000000
1932.000000
1925.000000
1923.000000
1926.000000
1921.000000
1929.000000
1932.000000
1936.000000
1937.000000
1939.000000
1946.000000
1947.000000
1953.000000
1953.000000
1953.000000
1954.000000
1954.000000
1949.000000
1949.000000
1943.000000
1941.000000
1943.000000
1942.000000
1946.000000
1966.000000
1968.000000
1968.000000
1969.000000
1973.000000
1980.000000
1983.000000
1994.000000
1991.000000
1994.000000
1990.000000
1991.000000
1984.000000
1974.000000
1970.000000
1971.000000
1968.000000
1967.000000
1968.000000
1970.000000
1971.000000
1968.000000
1967.000000
1968.000000
1967.000000
1968.000000
1963.000000
1965.000000
1958.000000
1967.000000
1968.000000
1968.000000
1969.000000
1968.000000
1968.000000
1969.000000
1973.000000
1977.000000
1977.000000
1978.000000
1983.000000
1983.000000
1982.000000
1977.000000
1977.000000
1976.000000
1970.000000
1969.000000
1966.000000
1968.000000
1968.000000
1968.000000
1965.000000
1967.000000
1968.000000
1969.000000
1973.000000
1978.000000
1979.000000
1982.000000
1984.000000
1981.000000
1981.000000
1983.000000
1979.000000
1979.000000
1979.000000
1979.000000
1980.000000
1983.000000
1982.000000
1983.000000
1984.000000
1978.000000
1984.000000
1984.000000
1984.000000
1984.000000
1986.000000
1987.000000
1984.000000
1986.000000
1985.000000
1991.000000
1987.000000
1989.000000
1991.000000
1989.000000
1987.000000
1988.000000
1987.000000
1987.000000
1971.000000
1973.000000
1977.000000
1981.000000
1983.000000
1984.000000
1984.000000
1985.000000
1987.000000
1987.000000
1988.000000
1987.000000
1985.000000
1985.000000
1984.000000
1984.000000
1993.000000
1996.000000
1994.000000
2000.000000
1989.000000
1985.000000
1982.000000
1975.000000
1975.000000
1969.000000
1963.000000
1969.000000
1971.000000
1972.000000
1970.000000
1971.000000
1971.000000
1970.000000
1974.000000
1972.000000
1978.000000
1978.000000
1981.000000
1984.000000
1984.000000
1985.000000
1993.000000
1991.000000
1998.000000
1999.000000
1998.000000
1989.000000
1989.000000
1983.000000
1982.000000
1979.000000
1981.000000
1977.000000
1974.000000
1970.000000
1971.000000
1969.000000
1968.000000
1967.000000
1967.000000
1968.000000
1967.000000
1969.000000
1968.000000
1969.000000
1971.000000
1974.000000
1972.000000
1971.000000
1971.000000
1971.000000
1975.000000
1985.000000
1975.000000
1973.000000
1971.000000
1973.000000
1970.000000
1968.000000
1967.000000
1963.000000
1949.000000
1961.000000
1959.000000
1956.000000
1959.000000
1958.000000
1961.000000
1962.000000
1962.000000
1962.000000
1963.000000
1965.000000
1963.000000
1965.000000
1966.000000
1969.000000
1967.000000
1971.000000
1970.000000
1973.000000
1977.000000
1981.000000
1978.000000
1975.000000
1981.000000
1984.000000
1987.000000
1982.000000
1979.000000
1975.000000
1975.000000
1970.000000
1969.000000
1968.000000
1968.000000
1965.000000
1967.000000
1968.000000
1965.000000
1968.000000
1972.000000
1969.000000
1966.000000
1961.000000
1965.000000
1963.000000
1949.000000
1961.000000
1957.000000
1955.000000
1958.000000
1962.000000
1961.000000
1958.000000
1968.000000
1970.000000
1970.000000
1971.000000
1974.000000
1978.000000
1973.000000
1981.000000
1975.000000
1972.000000
1978.000000
1978.000000
1973.000000
1968.000000
1968.000000
1968.000000
1970.000000
1968.000000
1959.000000
1959.000000
1953.000000
1953.000000
1951.000000
1948.000000
1949.000000
1949.000000
1950.000000
1952.000000
1946.000000
1953.000000
1955.000000
1957.000000
1953.000000
1952.000000
1952.000000
1954.000000
1953.000000
1954.000000
1958.000000
1959.000000
1959.000000
1962.000000
1959.000000
1954.000000
1952.000000
1952.000000
1958.000000
1951.000000
1951.000000
1949.000000
1950.000000
1950.000000
1950.000000
1955.000000
1947.000000
1953.000000
1951.000000
1955.000000
1956.000000
1962.000000
1958.000000
1966.000000
1984.000000
1961.000000
1968.000000
1969.000000
1968.000000
1968.000000
1968.000000
1966.000000
1968.000000
1966.000000
1968.000000
1965.000000
1962.000000
1966.000000
1962.000000
1966.000000
1963.000000
1959.000000
1959.000000
1965.000000
1964.000000
1963.000000
1958.000000
1971.000000
1965.000000
1965.000000
1957.000000
1957.000000
1957.000000
1958.000000
1959.000000
1959.000000
1956.000000
1962.000000
1961.000000
1959.000000
1962.000000
1959.000000
1962.000000
1966.000000
1965.000000
1967.000000
1964.000000
1959.000000
1968.000000
1968.000000
1968.000000
1967.000000
1967.000000
1965.000000
1961.000000
1959.000000
1963.000000
1959.000000
1957.000000
1955.000000
1955.000000
1949.000000
1958.000000
1959.000000
1958.000000
1966.000000
1961.000000
1968.000000
1970.000000
1968.000000
1969.000000
1967.000000
1966.000000
1963.000000
1959.000000
1953.000000
1950.000000
1947.000000
1947.000000
1946.000000
1947.000000
1952.000000
1948.000000
1949.000000
1947.000000
1943.000000
1941.000000
1947.000000
1941.000000
1943.000000
1941.000000
1939.000000
1946.000000
1946.000000
1950.000000
1949.000000
1950.000000
1954.000000
1955.000000
1964.000000
1966.000000
1972.000000
1973.000000
1969.000000
1968.000000
1959.000000
1959.000000
1951.000000
1947.000000
1942.000000
1937.000000
1936.000000
1937.000000
1936.000000
1936.000000
1939.000000
1939.000000
1942.000000
1946.000000
1950.000000
1952.000000
1951.000000
1954.000000
1966.000000
1961.000000
1958.000000
1965.000000
1966.000000
1966.000000
1965.000000
1959.000000
1962.000000
1962.000000
1966.000000
1955.000000
1954.000000
1943.000000
1941.000000
1936.000000
1937.000000
1937.000000
1936.000000
1941.000000
1943.000000
1945.000000
1949.000000
1949.000000
1953.000000
1954.000000
1954.000000
1955.000000
1957.000000
1951.000000
1951.000000
1938.000000
1941.000000
1941.000000
1938.000000
1936.000000
1939.000000
1941.000000
1937.000000
1943.000000
1939.000000
1939.000000
1938.000000
1937.000000
1937.000000
1938.000000
1937.000000
1943.000000
1942.000000
1950.000000
1947.000000
1949.000000
1947.000000
1943.000000
1939.000000
1938.000000
1936.000000
1935.000000
1931.000000
1932.000000
1936.000000
1934.000000
1916.000000
1925.000000
1927.000000
1930.000000
1933.000000
1936.000000
1936.000000
1943.000000
1944.000000
1939.000000
1951.000000
1942.000000
1946.000000
1942.000000
1946.000000
1945.000000
1941.000000
1943.000000
1946.000000
1943.000000
1950.000000
1950.000000
1954.000000
1955.000000
1955.000000
1955.000000
1949.000000
1943.000000
1943.000000
1939.000000
1936.000000
1933.000000
1922.000000
1925.000000
1925.000000
1923.000000
1919.000000
1922.000000
1920.000000
1921.000000
1926.000000
1921.000000
1925.000000
1924.000000
1927.000000
1927.000000
1927.000000
1933.000000
1934.000000
1933.000000
1933.000000
1933.000000
1938.000000
1937.000000
1937.000000
1936.000000
1936.000000
1936.000000
1937.000000
1936.000000
1936.000000
1936.000000
1938.000000
1937.000000
1936.000000
1936.000000
1936.000000
1929.000000
1923.000000
1921.000000
1917.000000
1911.000000
1914.000000
1919.000000
1920.000000
1920.000000
1923.000000
1922.000000
1922.000000
1923.000000
1925.000000
1921.000000
1926.000000
1925.000000
1931.000000
1925.000000
1926.000000
1927.000000
1926.000000
1926.000000
1927.000000
1923.000000
1926.000000
1925.000000
1929.000000
1930.000000
1934.000000
1936.000000
1937.000000
1937.000000
1942.000000
1945.000000
1937.000000
1940.000000
1929.000000
1937.000000
1932.000000
1934.000000
1933.000000
1931.000000
1934.000000
1924.000000
1926.000000
1924.000000
1923.000000
1922.000000
1924.000000
1925.000000
1925.000000
1926.000000
1926.000000
1929.000000
1927.000000
1930.000000
1927.000000
1934.000000
1934.000000
1936.000000
1936.000000
1938.000000
1937.000000
1937.000000
1945.000000
1943.000000
1945.000000
1945.000000
1942.000000
1946.000000
1941.000000
1937.000000
1936.000000
1935.000000
1936.000000
1949.000000
1936.000000
1936.000000
1936.000000
1936.000000
1936.000000
1936.000000
1936.000000
1931.000000
1936.000000
1931.000000
1933.000000
1932.000000
1922.000000
1923.000000
1922.000000
1920.000000
1921.000000
1921.000000
1924.000000
1926.000000
1923.000000
1926.000000
1929.000000
1930.000000
1929.000000
1925.000000
1921.000000
1920.000000
1915.000000
1914.000000
1917.000000
1919.000000
1922.000000
1925.000000
1936.000000
1939.000000
1937.000000
1938.000000
1942.000000
1939.000000
1936.000000
1936.000000
1931.000000
1926.000000
1927.000000
1927.000000
1927.000000
1925.000000
1926.000000
1925.000000
1922.000000
1919.000000
1930.000000
1927.000000
1930.000000
1923.000000
1924.000000
1924.000000
1923.000000
1924.000000
1925.000000
1929.000000
1931.000000
1936.000000
1937.000000
1940.000000
1941.000000
1946.000000
1947.000000
1943.000000
1939.000000
1938.000000
1933.000000
1925.000000
1919.000000
1913.000000
1906.000000
1904.000000
1904.000000
1903.000000
1904.000000
1905.000000
1906.000000
1909.000000
1911.000000
1919.000000
1908.000000
1906.000000
1910.000000
1914.000000
1911.000000
1914.000000
1913.000000
1910.000000
1907.000000
1906.000000
1908.000000
1904.000000
1904.000000
1904.000000
1905.000000
1907.000000
1911.000000
1917.000000
1926.000000
1927.000000
1936.000000
1935.000000
1937.000000
1936.000000
1931.000000
1926.000000
1920.000000
1915.000000
1909.000000
1904.000000
1901.000000
1897.000000
1893.000000
1893.000000
1893.000000
1893.000000
1895.000000
1895.000000
1895.000000
1894.000000
1891.000000
1890.000000
1897.000000
1898.000000
1899.000000
1902.000000
1904.000000
1909.000000
1907.000000
1910.000000
1905.000000
1907.000000
1909.000000
1905.000000
1904.000000
1906.000000
1905.000000
1910.000000
1914.000000
1911.000000
1918.000000
1907.000000
1906.000000
1905.000000
1905.000000
1903.000000
1904.000000
1904.000000
1904.000000
1899.000000
1909.000000
1911.000000
1917.000000
1918.000000
1915.000000
1907.000000
1905.000000
1903.000000
1902.000000
1894.000000
1897.000000
1891.000000
1891.000000
1890.000000
1887.000000
1886.000000
1886.000000
1887.000000
1887.000000
1885.000000
1886.000000
1881.000000
1883.000000
1886.000000
1881.000000
1879.000000
1879.000000
1882.000000
1899.000000
1893.000000
1902.000000
1904.000000
1907.000000
1923.000000
1919.000000
1917.000000
1917.000000
1910.000000
1905.000000
1901.000000
1899.000000
1888.000000
1886.000000
1882.000000
1877.000000
1876.000000
1875.000000
1878.000000
1878.000000
1882.000000
1885.000000
1889.000000
1889.000000
1894.000000
1893.000000
1885.000000
1885.000000
1890.000000
1889.000000
1888.000000
1894.000000
1895.000000
1903.000000
1904.000000
1907.000000
1908.000000
1903.000000
1903.000000
1891.000000
1887.000000
1883.000000
1875.000000
1874.000000
1873.000000
1872.000000
1872.000000
1872.000000
1875.000000
1877.000000
1875.000000
1880.000000
1881.000000
1882.000000
1883.000000
1879.000000
1879.000000
1878.000000
1883.000000
1885.000000
1885.000000
1883.000000
1883.000000
1879.000000
1886.000000
1874.000000
1866.000000
1866.000000
1860.000000
1855.000000
1855.000000
1853.000000
1853.000000
1841.000000
1855.000000
1856.000000
1855.000000
1854.000000
1850.000000
1840.000000
1855.000000
1857.000000
1858.000000
1867.000000
1872.000000
1873.000000
1877.000000
1881.000000
1881.000000
1882.000000
1879.000000
1874.000000
1873.000000
1867.000000
1858.000000
1856.000000
1856.000000
1854.000000
1862.000000
1872.000000
1872.000000
1875.000000
1876.000000
1872.000000
1871.000000
1863.000000
1862.000000
1858.000000
1869.000000
1874.000000
1872.000000
1874.000000
1877.000000
1875.000000
1878.000000
1877.000000
1878.000000
1879.000000
1876.000000
1872.000000
1871.000000
1862.000000
1856.000000
1856.000000
1854.000000
1855.000000
1855.000000
1857.000000
1861.000000
1855.000000
1867.000000
1872.000000
1856.000000
1854.000000
1845.000000
1846.000000
1842.000000
1841.000000
1843.000000
1850.000000
1843.000000
1841.000000
1840.000000
1843.000000
1850.000000
1850.000000
1854.000000
1854.000000
1855.000000
1855.000000
1854.000000
1854.000000
1846.000000
1844.000000
1840.000000
1841.000000
1840.000000
1838.000000
1840.000000
1839.000000
1837.000000
1835.000000
1835.000000
1840.000000
1840.000000
1840.000000
1841.000000
1840.000000
1845.000000
1846.000000
1850.000000
1856.000000
1855.000000
1844.000000
1857.000000
1853.000000
1842.000000
1834.000000
1829.000000
1822.000000
1823.000000
1823.000000
1842.000000
1849.000000
1860.000000
1863.000000
1869.000000
1857.000000
1854.000000
1842.000000
1833.000000
1824.000000
1813.000000
1815.000000
1819.000000
1818.000000
1823.000000
1827.000000
1834.000000
1833.000000
1831.000000
1827.000000
1824.000000
1826.000000
1821.000000
1822.000000
1824.000000
1822.000000
1823.000000
1824.000000
1824.000000
1825.000000
1824.000000
1829.000000
1827.000000
1831.000000
1833.000000
1830.000000
1834.000000
1829.000000
1831.000000
1830.000000
1827.000000
1830.000000
1831.000000
1831.000000
1837.000000
1834.000000
1838.000000
1839.000000
1840.000000
1839.000000
1837.000000
1828.000000
1823.000000
1814.000000
1815.000000
1810.000000
1809.000000
1813.000000
1824.000000
1827.000000
1838.000000
1840.000000
1841.000000
1851.000000
1851.000000
1848.000000
1846.000000
1842.000000
1840.000000
1835.000000
1834.000000
1838.000000
1829.000000
1827.000000
1823.000000
1822.000000
1820.000000
1817.000000
1817.000000
1825.000000
1834.000000
1841.000000
1853.000000
1859.000000
1865.000000
1859.000000
1856.000000
1843.000000
1833.000000
1822.000000
1813.000000
1808.000000
1797.000000
1807.000000
1781.000000
1791.000000
1792.000000
1798.000000
1803.000000
1808.000000
1809.000000
1820.000000
1813.000000
1808.000000
1799.000000
1793.000000
1793.000000
1800.000000
1805.000000
1808.000000
1814.000000
1821.000000
1825.000000
1827.000000
1826.000000
1826.000000
1827.000000
1829.000000
1829.000000
1827.000000
1823.000000
1821.000000
1819.000000
1817.000000
1819.000000
1822.000000
1822.000000
1827.000000
1809.000000
1825.000000
1828.000000
1835.000000
1834.000000
1834.000000
1829.000000
1815.000000
1806.000000
1797.000000
1791.000000
1782.000000
1781.000000
1778.000000
1777.000000
1778.000000
1787.000000
1790.000000
1797.000000
1803.000000
1810.000000
1817.000000
1821.000000
1823.000000
1828.000000
1824.000000
1823.000000
1817.000000
1812.000000
1804.000000
1786.000000
1775.000000
1765.000000
1761.000000
1763.000000
1776.000000
1785.000000
1794.000000
1806.000000
1809.000000
1810.000000
1810.000000
1807.000000
1806.000000
1807.000000
1797.000000
1791.000000
1786.000000
1787.000000
1783.000000
1799.000000
1807.000000
1809.000000
1814.000000
1818.000000
1822.000000
1827.000000
1833.000000
1838.000000
1840.000000
1838.000000
1827.000000
1818.000000
1808.000000
1792.000000
1782.000000
1775.000000
1765.000000
1760.000000
1750.000000
1748.000000
1745.000000
1743.000000
1747.000000
1751.000000
1755.000000
1750.000000
1749.000000
1753.000000
1759.000000
1770.000000
1777.000000
1781.000000
1790.000000
1795.000000
1801.000000
1799.000000
1795.000000
1794.000000
1794.000000
1798.000000
1799.000000
1793.000000
1802.000000
1794.000000
1792.000000
1787.000000
1779.000000
1776.000000
1775.000000
1773.000000
1776.000000
1775.000000
1771.000000
1765.000000
1762.000000
1763.000000
1754.000000
1758.000000
1757.000000
1757.000000
1744.000000
1744.000000
1748.000000
1752.000000
1763.000000
1776.000000
1792.000000
1808.000000
1814.000000
1818.000000
1811.000000
1807.000000
1793.000000
1781.000000
1771.000000
1762.000000
1751.000000
1747.000000
1744.000000
1743.000000
1743.000000
1744.000000
1741.000000
1739.000000
1742.000000
1742.000000
1743.000000
1739.000000
1741.000000
1735.000000
1739.000000
1742.000000
1744.000000
1754.000000
1762.000000
1763.000000
1767.000000
1766.000000
1769.000000
1766.000000
1775.000000
1775.000000
1776.000000
1773.000000
1770.000000
1764.000000
1758.000000
1755.000000
1750.000000
1751.000000
1749.000000
1747.000000
1746.000000
1743.000000
1744.000000
1754.000000
1763.000000
1780.000000
1796.000000
1817.000000
1825.000000
1822.000000
1814.000000
1808.000000
1753.000000
1749.000000
1747.000000
1755.000000
1762.000000
1761.000000
1760.000000
1755.000000
1747.000000
1738.000000
1739.000000
1735.000000
1736.000000
1738.000000
1743.000000
1744.000000
1750.000000
1763.000000
1776.000000
1791.000000
1807.000000
1821.000000
1831.000000
1833.000000
1840.000000
1838.000000
1824.000000
1824.000000
1813.000000
1801.000000
1783.000000
1757.000000
1744.000000
1734.000000
1730.000000
1747.000000
1754.000000
1763.000000
1766.000000
1762.000000
1757.000000
1746.000000
1734.000000
1729.000000
1729.000000
1735.000000
1745.000000
1760.000000
1774.000000
1776.000000
1785.000000
1781.000000
1779.000000
1778.000000
1779.000000
1786.000000
1791.000000
1797.000000
1810.000000
1808.000000
1806.000000
1798.000000
1789.000000
1771.000000
1748.000000
1744.000000
1729.000000
1721.000000
1717.000000
1719.000000
1726.000000
1734.000000
1745.000000
1761.000000
1773.000000
1781.000000
1791.000000
1795.000000
1804.000000
1804.000000
1799.000000
1793.000000
1783.000000
1771.000000
1755.000000
1735.000000
1728.000000
1726.000000
1722.000000
1729.000000
1743.000000
1760.000000
1779.000000
1793.000000
1811.000000
1821.000000
1829.000000
1828.000000
1825.000000
1822.000000
1813.000000
1806.000000
1792.000000
1776.000000
1796.000000
1801.000000
1797.000000
1792.000000
1791.000000
1791.000000
1786.000000
1779.000000
1774.000000
1764.000000
1750.000000
1742.000000
1729.000000
1723.000000
1718.000000
1714.000000
1719.000000
1723.000000
1723.000000
1731.000000
1754.000000
1775.000000
1792.000000
1807.000000
1813.000000
1822.000000
1833.000000
1839.000000
1840.000000
1839.000000
1825.000000
1809.000000
1793.000000
1778.000000
1751.000000
1741.000000
1733.000000
1731.000000
1731.000000
1739.000000
1744.000000
1749.000000
1765.000000
1778.000000
1783.000000
1778.000000
1766.000000
1754.000000
1739.000000
1731.000000
1728.000000
1730.000000
1737.000000
1744.000000
1744.000000
1754.000000
1761.000000
1767.000000
1767.000000
1764.000000
1767.000000
1773.000000
1766.000000
1770.000000
1770.000000
1773.000000
1778.000000
1770.000000
1775.000000
1776.000000
1781.000000
1788.000000
1788.000000
1789.000000
1786.000000
1781.000000
1776.000000
1766.000000
1763.000000
1753.000000
1747.000000
1743.000000
1743.000000
1746.000000
1735.000000
1742.000000
1726.000000
1725.000000
1723.000000
1728.000000
1741.000000
1754.000000
1757.000000
1767.000000
1771.000000
1776.000000
1773.000000
1774.000000
1763.000000
1758.000000
1744.000000
1729.000000
1724.000000
1714.000000
1710.000000
1705.000000
1693.000000
1692.000000
1683.000000
1689.000000
1711.000000
1732.000000
1760.000000
1777.000000
1790.000000
1792.000000
1786.000000
1776.000000
1765.000000
1743.000000
1743.000000
1732.000000
1717.000000
1706.000000
1693.000000
1688.000000
1689.000000
1691.000000
1701.000000
1699.000000
1707.000000
1712.000000
1718.000000
1719.000000
1721.000000
1726.000000
1725.000000
1728.000000
1741.000000
1750.000000
1761.000000
1761.000000
1755.000000
1742.000000
1728.000000
1717.000000
1705.000000
1694.000000
1685.000000
1685.000000
1698.000000
1707.000000
1715.000000
1724.000000
1728.000000
1730.000000
1732.000000
1742.000000
1755.000000
1763.000000
1775.000000
1771.000000
1765.000000
1756.000000
1738.000000
1726.000000
1697.000000
1673.000000
1651.000000
1637.000000
1637.000000
1637.000000
1649.000000
1655.000000
1664.000000
1679.000000
1698.000000
1710.000000
1719.000000
1719.000000
1728.000000
1735.000000
1739.000000
1744.000000
1744.000000
1737.000000
1738.000000
1741.000000
1739.000000
1740.000000
1739.000000
1735.000000
1727.000000
1714.000000
1707.000000
1706.000000
1699.000000
1701.000000
1710.000000
1715.000000
1736.000000
1746.000000
1753.000000
1755.000000
1752.000000
1754.000000
1751.000000
1741.000000
1730.000000
1712.000000
1712.000000
1707.000000
1714.000000
1711.000000
1712.000000
1712.000000
1706.000000
1693.000000
1680.000000
1664.000000
1648.000000
1627.000000
1607.000000
1594.000000
1580.000000
1571.000000
1572.000000
1584.000000
1596.000000
1620.000000
1647.000000
1664.000000
1676.000000
1682.000000
1685.000000
1687.000000
1694.000000
1695.000000
1694.000000
1679.000000
1651.000000
1627.000000
1616.000000
1616.000000
1627.000000
1664.000000
1695.000000
1731.000000
1762.000000
1785.000000
1809.000000
1826.000000
1840.000000
1839.000000
1813.000000
1760.000000
1705.000000
1663.000000
1648.000000
1657.000000
1709.000000
1750.000000
1795.000000
1835.000000
1855.000000
1871.000000
1857.000000
1808.000000
1723.000000
1623.000000
1535.000000
1478.000000
1456.000000
1491.000000
1555.000000
1631.000000
1703.000000
1765.000000
1829.000000
1862.000000
1888.000000
1894.000000
1878.000000
1840.000000
1776.000000
1697.000000
1606.000000
1509.000000
1419.000000
1324.000000
1235.000000
1174.000000
1167.000000
1215.000000
1319.000000
1426.000000
1638.000000
1801.000000
1943.000000
2043.000000
2113.000000
2143.000000
2141.000000
2112.000000
2061.000000
2003.000000
1931.000000
1870.000000
1772.000000
1673.000000
1587.000000
1509.000000
1472.000000
1475.000000
1506.000000
1556.000000
1589.000000
1601.000000
1594.000000
1569.000000
1530.000000
1494.000000
1451.000000
1408.000000
1372.000000
1371.000000
1396.000000
1466.000000
1535.000000
1639.000000
1744.000000
1842.000000
1929.000000
1991.000000
2019.000000
2010.000000
1963.000000
1891.000000
1813.000000
1711.000000
1612.000000
1515.000000
1440.000000
1378.000000
1332.000000
1325.000000
1341.000000
1386.000000
1419.000000
1535.000000
1607.000000
1661.000000
1693.000000
1679.000000
1597.000000
1494.000000
1406.000000
1345.000000
1331.000000
1374.000000
1475.000000
1616.000000
1767.000000
1901.000000
2001.000000
2077.000000
2115.000000
2123.000000
2077.000000
1987.000000
1813.000000
1627.000000
1477.000000
1207.000000
1039.000000
885.000000
832.000000
833.000000
928.000000
1104.000000
1317.000000
1519.000000
1695.000000
1809.000000
1921.000000
1981.000000
2015.000000
2037.000000
2022.000000
1987.000000
1945.000000
1904.000000
1881.000000
1861.000000
1850.000000
1815.000000
1791.000000
1741.000000
1638.000000
1504.000000
1264.000000
1046.000000
789.000000
590.000000
448.000000
394.000000
407.000000
497.000000
643.000000
925.000000
1247.000000
1589.000000
1904.000000
2197.000000
2432.000000
2587.000000
2651.000000
2640.000000
2474.000000
2293.000000
2000.000000
1749.000000
1600.000000
1375.000000
1282.000000
1230.000000
1211.000000
1241.000000
1287.000000
1350.000000
1371.000000
1356.000000
1326.000000
1305.000000
1286.000000
1296.000000
1335.000000
1409.000000
1519.000000
1648.000000
1789.000000
1936.000000
2026.000000
2128.000000
2133.000000
2099.000000
2034.000000
1959.000000
1895.000000
1846.000000
1817.000000
1799.000000
1805.000000
1814.000000
1838.000000
1847.000000
1840.000000
1818.000000
1763.000000
1683.000000
1504.000000
1345.000000
1178.000000
1033.000000
944.000000
922.000000
1009.000000
1206.000000
1425.000000
1606.000000
1805.000000
1866.000000
1792.000000
1662.000000
1425.000000
1253.000000
1169.000000
1165.000000
1248.000000
1445.000000
1680.000000
1953.000000
2199.000000
2381.000000
2463.000000
2462.000000
2395.000000
2279.000000
2140.000000
2006.000000
1821.000000
1643.000000
1434.000000
1179.000000
971.000000
654.000000
511.000000
457.000000
495.000000
640.000000
879.000000
1138.000000
1390.000000
1562.000000
1740.000000
1846.000000
1918.000000
1968.000000
1987.000000
1984.000000
1966.000000
1926.000000
1869.000000
1792.000000
1723.000000
1678.000000
1664.000000
1671.000000
1682.000000
1673.000000
1601.000000
1477.000000
1366.000000
1138.000000
1029.000000
989.000000
1047.000000
1174.000000
1317.000000
1425.000000
1487.000000
1503.000000
1497.000000
1494.000000
1497.000000
1519.000000
1531.000000
1580.000000
1648.000000
1749.000000
1878.000000
2004.000000
2069.000000
2062.000000
1990.000000
1840.000000
1705.000000
1529.000000
1319.000000
1136.000000
1007.000000
902.000000
881.000000
949.000000
1043.000000
1131.000000
1169.000000
1151.000000
1072.000000
975.000000
951.000000
1023.000000
1186.000000
1424.000000
1667.000000
2063.000000
2305.000000
2459.000000
2523.000000
2515.000000
2423.000000
2306.000000
2160.000000
1974.000000
1773.000000
1591.000000
1435.000000
1325.000000
1216.000000
1133.000000
1079.000000
1072.000000
1099.000000
1127.000000
1104.000000
1019.000000
867.000000
786.000000
739.000000
825.000000
974.000000
1282.000000
1569.000000
1830.000000
2031.000000
2157.000000
2215.000000
2247.000000
2278.000000
2323.000000
2347.000000
2331.000000
2260.000000
2115.000000
1916.000000
1687.000000
1461.000000
1319.000000
1171.000000
1136.000000
1161.000000
1188.000000
1218.000000
1207.000000
1149.000000
1103.000000
1083.000000
1119.000000
1263.000000
1468.000000
1729.000000
1887.000000
1994.000000
1997.000000
1891.000000
1727.000000
1526.000000
1328.000000
1161.000000
1054.000000
1037.000000
1102.000000
1242.000000
1468.000000
1664.000000
1891.000000
2047.000000
2293.000000
2394.000000
2494.000000
2445.000000
2214.000000
1926.000000
1392.000000
960.000000
624.000000
428.000000
417.000000
529.000000
881.000000
1181.000000
1403.000000
1526.000000
1628.000000
1646.000000
1630.000000
1626.000000
1681.000000
1795.000000
1946.000000
2027.000000
2053.000000
1978.000000
1840.000000
1673.000000
1505.000000
1411.000000
1399.000000
1474.000000
1605.000000
1775.000000
1903.000000
2128.000000
2233.000000
2242.000000
2125.000000
1874.000000
1555.000000
1235.000000
1043.000000
839.000000
828.000000
870.000000
928.000000
973.000000
1062.000000
1124.000000
1217.000000
1353.000000
1535.000000
1771.000000
1968.000000
2074.000000
2063.000000
1967.000000
1877.000000
1815.000000
1808.000000
1842.000000
1949.000000
2089.000000
2202.000000
2227.000000
2077.000000
1738.000000
1273.000000
797.000000
439.000000
272.000000
331.000000
567.000000
956.000000
1321.000000
1863.000000
2160.000000
2346.000000
2398.000000
2397.000000
2337.000000
2247.000000
2133.000000
2070.000000
2032.000000
2037.000000
2085.000000
2133.000000
2160.000000
2129.000000
2075.000000
1920.000000
1771.000000
1615.000000
1388.000000
1023.000000
611.000000
191.000000
0.000000
0.000000
0.000000
98.000000
688.000000
1344.000000
2004.000000
2559.000000
2925.000000
3169.000000
3261.000000
3222.000000
3118.000000
2944.000000
2749.000000
2522.000000
2303.000000
2086.000000
1909.000000
1776.000000
1483.000000
1023.000000
475.000000
0.000000
0.000000
0.000000
0.000000
78.000000
509.000000
995.000000
1619.000000
2155.000000
2495.000000
2939.000000
3199.000000
3327.000000
3335.000000
3263.000000
3148.000000
2967.000000
2787.000000
2635.000000
2404.000000
2123.000000
1819.000000
1526.000000
1296.000000
1115.000000
959.000000
806.000000
639.000000
488.000000
400.000000
397.000000
511.000000
752.000000
1037.000000
1361.000000
1631.000000
1841.000000
1989.000000
2155.000000
2274.000000
2368.000000
2449.000000
2475.000000
2421.000000
2270.000000
2026.000000
1839.000000
1705.000000
1649.000000
1650.000000
1643.000000
1535.000000
1366.000000
1125.000000
916.000000
708.000000
663.000000
762.000000
966.000000
1215.000000
1395.000000
1653.000000
1851.000000
1983.000000
2235.000000
2350.000000
2383.000000
2326.000000
2232.000000
2142.000000
2059.000000
2000.000000
1951.000000
1904.000000
1877.000000
1848.000000
1819.000000
1792.000000
1776.000000
1782.000000
1803.000000
1819.000000
1772.000000
1710.000000
1535.000000
1449.000000
1331.000000
1255.000000
1211.000000
1205.000000
1262.000000
1396.000000
1555.000000
1728.000000
1871.000000
1938.000000
2030.000000
2098.000000
2199.000000
2325.000000
2431.000000
2532.000000
2559.000000
2544.000000
2480.000000
2307.000000
1968.000000
1529.000000
1194.000000
765.000000
592.000000
592.000000
767.000000
944.000000
1233.000000
1483.000000
1597.000000
1635.000000
1680.000000
1749.000000
1870.000000
2044.000000
2270.000000
2497.000000
2676.000000
2800.000000
2854.000000
2849.000000
2791.000000
2679.000000
2548.000000
2235.000000
2017.000000
1626.000000
1344.000000
1159.000000
853.000000
594.000000
341.000000
149.000000
59.000000
64.000000
233.000000
471.000000
849.000000
1250.000000
1747.000000
2160.000000
2528.000000
2854.000000
3135.000000
3345.000000
3381.000000
3239.000000
2974.000000
2717.000000
2343.000000
1984.000000
1796.000000
1622.000000
1527.000000
1408.000000
1229.000000
990.000000
753.000000
574.000000
500.000000
561.000000
789.000000
1088.000000
1500.000000
1959.000000
2395.000000
2690.000000
2991.000000
3170.000000
3123.000000
2905.000000
2624.000000
2316.000000
2076.000000
1891.000000
1794.000000
1773.000000
1809.000000
1839.000000
1740.000000
1514.000000
1296.000000
958.000000
775.000000
711.000000
797.000000
1032.000000
1281.000000
1761.000000
2124.000000
2362.000000
2519.000000
2611.000000
2646.000000
2623.000000
2512.000000
2301.000000
1974.000000
1664.000000
1344.000000
1007.000000
819.000000
781.000000
881.000000
1070.000000
1414.000000
1750.000000
2096.000000
2371.000000
2559.000000
2706.000000
2733.000000
2704.000000
2619.000000
2433.000000
2242.000000
2037.000000
1808.000000
1573.000000
1374.000000
1237.000000
1149.000000
1088.000000
1047.000000
1015.000000
1073.000000
1199.000000
1406.000000
1613.000000
1750.000000
1811.000000
1834.000000
1837.000000
1857.000000
1895.000000
2020.000000
2143.000000
2283.000000
2385.000000
2430.000000
2387.000000
2288.000000
2166.000000
2030.000000
1931.000000
1850.000000
1762.000000
1663.000000
1479.000000
1283.000000
1072.000000
962.000000
942.000000
1058.000000
1296.000000
1625.000000
1957.000000
2247.000000
2430.000000
2471.000000
2387.000000
2206.000000
1936.000000
1715.000000
1586.000000
1535.000000
1651.000000
1855.000000
2038.000000
2229.000000
2343.000000
2311.000000
2047.000000
1505.000000
1003.000000
589.000000
338.000000
332.000000
547.000000
957.000000
1475.000000
1999.000000
2452.000000
2841.000000
3105.000000
3262.000000
3275.000000
3120.000000
2942.000000
2709.000000
2482.000000
2307.000000
1954.000000
1712.000000
1472.000000
1268.000000
1119.000000
1019.000000
1021.000000
1105.000000
1279.000000
1478.000000
1658.000000
1936.000000
2171.000000
2366.000000
2534.000000
2657.000000
2715.000000
2734.000000
2689.000000
2555.000000
2368.000000
1904.000000
1375.000000
905.000000
463.000000
139.000000
0.000000
0.000000
190.000000
593.000000
997.000000
1690.000000
2201.000000
2608.000000
2873.000000
3014.000000
3012.000000
2899.000000
2722.000000
2535.000000
2384.000000
2300.000000
2223.000000
2163.000000
2072.000000
1925.000000
1796.000000
1558.000000
1406.000000
1262.000000
1147.000000
1104.000000
1143.000000
1238.000000
1346.000000
1455.000000
1585.000000
1714.000000
1872.000000
2065.000000
2267.000000
2450.000000
2635.000000
2737.000000
2779.000000
2783.000000
2742.000000
2685.000000
2624.000000
2553.000000
2455.000000
2320.000000
2160.000000
1981.000000
1815.000000
1686.000000
1589.000000
1521.000000
1507.000000
1510.000000
1562.000000
1635.000000
1698.000000
1742.000000
1696.000000
1584.000000
1445.000000
1337.000000
1287.000000
1293.000000
1381.000000
1487.000000
1696.000000
1928.000000
2100.000000
2240.000000
2336.000000
2394.000000
2419.000000
2409.000000
2359.000000
2287.000000
2176.000000
2043.000000
1936.000000
1783.000000
1705.000000
1639.000000
1599.000000
1577.000000
1533.000000
1467.000000
1371.000000
1271.000000
1195.000000
1168.000000
1218.000000
1337.000000
1505.000000
1691.000000
1919.000000
2096.000000
2269.000000
2384.000000
2448.000000
2463.000000
2446.000000
2397.000000
2330.000000
2251.000000
2160.000000
2064.000000
1965.000000
1854.000000
1733.000000
1615.000000
1502.000000
1422.000000
1400.000000
1402.000000
1415.000000
1441.000000
1510.000000
1616.000000
1745.000000
1891.000000
2019.000000
2159.000000
2257.000000
2334.000000
2379.000000
2375.000000
2350.000000
2297.000000
2240.000000
2160.000000
2076.000000
1990.000000
1917.000000
1855.000000
1802.000000
1762.000000
1733.000000
1712.000000
1702.000000
1695.000000
1698.000000
1711.000000
1729.000000
1758.000000
1810.000000
1810.000000
1808.000000
1812.000000
1813.000000
1813.000000
1822.000000
1825.000000
1827.000000
1835.000000
1832.000000
1837.000000
1830.000000
1825.000000
1819.000000
1809.000000
1803.000000
1793.000000
1782.000000
1771.000000
1760.000000
1770.000000
1776.000000
1794.000000
1811.000000
1825.000000
1834.000000
1821.000000
1816.000000
1795.000000
1783.000000
1782.000000
1789.000000
1803.000000
1823.000000
1854.000000
1882.000000
1910.000000
1923.000000
1932.000000
1942.000000
1937.000000
1934.000000
1919.000000
1902.000000
1885.000000
1867.000000
1856.000000
1853.000000
1847.000000
1849.000000
1846.000000
1843.000000
1840.000000
1831.000000
1824.000000
1815.000000
1813.000000
1817.000000
1808.000000
1826.000000
1840.000000
1861.000000
1875.000000
1893.000000
1903.000000
1909.000000
1915.000000
1917.000000
1915.000000
1909.000000
1904.000000
1901.000000
1892.000000
1882.000000
1877.000000
1872.000000
1872.000000
1864.000000
1862.000000
1859.000000
1856.000000
1855.000000
1855.000000
1849.000000
1855.000000
1855.000000
1856.000000
1858.000000
1857.000000
1859.000000
1862.000000
1865.000000
1867.000000
1863.000000
1867.000000
1861.000000
1859.000000
1855.000000
1848.000000
1853.000000
1855.000000
1867.000000
1872.000000
1878.000000
1875.000000
1872.000000
1869.000000
1859.000000
1847.000000
1834.000000
1831.000000
1834.000000
1834.000000
1874.000000
1903.000000
1917.000000
1949.000000
1965.000000
1969.000000
1975.000000
1985.000000
1983.000000
1979.000000
1971.000000
1966.000000
1946.000000
1927.000000
1907.000000
1887.000000
1869.000000
1857.000000
1856.000000
1857.000000
1867.000000
1872.000000
1873.000000
1875.000000
1869.000000
1865.000000
1867.000000
1871.000000
1881.000000
1893.000000
1918.000000
1944.000000
1962.000000
1977.000000
1987.000000
1989.000000
1994.000000
1995.000000
1990.000000
1985.000000
1975.000000
1969.000000
1965.000000
1955.000000
1949.000000
1939.000000
1937.000000
1934.000000
1930.000000
1934.000000
1931.000000
1935.000000
1937.000000
1949.000000
1936.000000
1938.000000
1946.000000
1945.000000
1950.000000
1946.000000
1949.000000
1951.000000
1951.000000
1950.000000
1955.000000
1954.000000
1957.000000
1955.000000
1958.000000
1958.000000
1958.000000
1961.000000
1958.000000
1962.000000
1959.000000
1959.000000
1968.000000
1968.000000
1968.000000
1968.000000
1968.000000
1968.000000
1967.000000
1966.000000
1955.000000
1954.000000
1959.000000
1966.000000
1974.000000
1981.000000
1984.000000
1991.000000
1998.000000
2000.000000
2000.000000
1997.000000
1993.000000
1989.000000
1987.000000
1993.000000
1999.000000
1997.000000
2000.000000
1994.000000
1991.000000
1991.000000
1996.000000
1989.000000
1984.000000
1979.000000
1968.000000
1954.000000
1947.000000
1942.000000
1949.000000
1959.000000
1974.000000
1997.000000
2002.000000
2021.000000
2026.000000
2032.000000
2032.000000
2032.000000
2034.000000
2031.000000
2029.000000
2029.000000
2029.000000
2030.000000
2021.000000
2017.000000
2012.000000
2013.000000
2007.000000
2006.000000
2006.000000
2005.000000
2003.000000
2002.000000
2002.000000
2006.000000
2006.000000
2006.000000
2010.000000
2013.000000
2018.000000
2015.000000
2021.000000
2025.000000
2021.000000
2031.000000
2026.000000
2027.000000
2032.000000
2022.000000
2023.000000
2025.000000
2022.000000
2019.000000
2022.000000
2022.000000
2026.000000
2031.000000
2030.000000
2032.000000
2034.000000
2037.000000
2043.000000
2044.000000
2047.000000
2047.000000
2054.000000
2059.000000
2058.000000
2058.000000
2060.000000
2061.000000
2061.000000
2062.000000
2061.000000
2063.000000
2063.000000
2059.000000
2066.000000
2053.000000
2053.000000
2053.000000
2047.000000
2046.000000
2046.000000
2047.000000
2053.000000
2047.000000
2055.000000
2059.000000
2061.000000
2062.000000
2063.000000
2064.000000
2064.000000
2063.000000
2064.000000
2064.000000
2066.000000
2064.000000
2067.000000
2068.000000
2071.000000
2075.000000
2078.000000
2079.000000
2082.000000
2080.000000
2078.000000
2080.000000
2082.000000
2069.000000
2086.000000
2091.000000
2087.000000
2093.000000
2090.000000
2083.000000
2080.000000
2073.000000
2074.000000
2070.000000
2071.000000
2069.000000
2075.000000
2082.000000
2089.000000
2097.000000
2103.000000
2112.000000
2118.000000
2119.000000
2113.000000
2112.000000
2109.000000
2105.000000
2100.000000
2096.000000
2096.000000
2096.000000
2094.000000
2094.000000
2093.000000
2098.000000
2103.000000
2112.000000
2121.000000
2121.000000
2128.000000
2124.000000
2125.000000
2117.000000
2109.000000
2107.000000
2098.000000
2096.000000
2096.000000
2096.000000
2099.000000
2106.000000
2111.000000
2113.000000
2113.000000
2118.000000
2118.000000
2119.000000
2127.000000
2125.000000
2126.000000
2126.000000
2127.000000
2127.000000
2126.000000
2126.000000
2123.000000
2125.000000
2121.000000
2117.000000
2115.000000
2117.000000
2113.000000
2113.000000
2115.000000
2114.000000
2112.000000
2114.000000
2112.000000
2112.000000
2113.000000
2113.000000
2112.000000
2117.000000
2119.000000
2118.000000
2123.000000
2126.000000
2127.000000
2127.000000
2128.000000
2128.000000
2133.000000
2131.000000
2133.000000
2133.000000
2130.000000
2131.000000
2134.000000
2139.000000
2143.000000
2143.000000
2133.000000
2150.000000
2151.000000
2145.000000
2145.000000
2144.000000
2141.000000
2131.000000
2128.000000
2128.000000
2128.000000
2128.000000
2128.000000
2128.000000
2128.000000
2133.000000
2138.000000
2145.000000
2153.000000
2158.000000
2157.000000
2155.000000
2160.000000
2163.000000
2166.000000
2170.000000
2175.000000
2168.000000
2160.000000
2149.000000
2148.000000
2141.000000
2135.000000
2128.000000
2121.000000
2117.000000
2115.000000
2120.000000
2127.000000
2133.000000
2144.000000
2159.000000
2163.000000
2167.000000
2169.000000
2170.000000
2166.000000
2167.000000
2161.000000
2160.000000
2165.000000
2160.000000
2160.000000
2161.000000
2161.000000
2162.000000
2161.000000
2164.000000
2161.000000
2161.000000
2165.000000
2160.000000
2161.000000
2167.000000
2160.000000
2175.000000
2162.000000
2165.000000
2161.000000
2160.000000
2163.000000
2163.000000
2161.000000
2160.000000
2160.000000
2160.000000
2160.000000
2157.000000
2160.000000
2155.000000
2158.000000
2151.000000
2155.000000
2150.000000
2159.000000
2160.000000
2164.000000
2164.000000
2165.000000
2169.000000
2167.000000
2167.000000
2165.000000
2166.000000
2167.000000
2171.000000
2174.000000
2174.000000
2176.000000
2177.000000
2176.000000
2174.000000
2176.000000
2175.000000
2173.000000
2168.000000
2163.000000
2161.000000
2160.000000
2160.000000
2160.000000
2160.000000
2164.000000
2171.000000
2176.000000
2180.000000
2186.000000
2188.000000
2191.000000
2182.000000
2179.000000
2174.000000
2161.000000
2158.000000
2146.000000
2144.000000
2141.000000
2141.000000
2145.000000
2146.000000
2153.000000
2151.000000
2156.000000
2160.000000
2160.000000
2167.000000
2173.000000
2161.000000
2173.000000
2172.000000
2169.000000
2166.000000
2160.000000
2157.000000
2156.000000
2160.000000
2157.000000
2157.000000
2154.000000
2153.000000
2151.000000
2160.000000
2143.000000
2145.000000
2144.000000
2143.000000
2143.000000
2145.000000
2145.000000
2145.000000
2151.000000
2151.000000
2155.000000
2155.000000
2158.000000
2160.000000
2162.000000
2167.000000
2170.000000
2176.000000
2176.000000
2177.000000
2178.000000
2176.000000
2176.000000
2175.000000
2164.000000
2162.000000
2155.000000
2147.000000
2146.000000
2141.000000
2139.000000
2139.000000
2142.000000
2144.000000
2146.000000
2149.000000
2147.000000
2154.000000
2158.000000
2162.000000
2164.000000
2173.000000
2180.000000
2178.000000
2175.000000
2180.000000
2180.000000
2176.000000
2172.000000
2167.000000
2162.000000
2160.000000
2160.000000
2159.000000
2155.000000
2155.000000
2155.000000
2154.000000
2155.000000
2158.000000
2160.000000
2158.000000
2159.000000
2160.000000
2160.000000
2160.000000
2162.000000
2158.000000
2156.000000
2154.000000
2151.000000
2154.000000
2145.000000
2155.000000
2150.000000
2149.000000
2150.000000
2145.000000
2151.000000
2155.000000
2154.000000
2155.000000
2158.000000
2169.000000
2162.000000
2170.000000
2172.000000
2174.000000
2167.000000
2163.000000
2159.000000
2155.000000
2151.000000
2144.000000
2143.000000
2146.000000
2144.000000
2145.000000
2151.000000
2158.000000
2160.000000
2162.000000
2162.000000
2174.000000
2165.000000
2164.000000
2160.000000
2149.000000
2143.000000
2131.000000
2130.000000
2125.000000
2123.000000
2128.000000
2133.000000
2144.000000
2150.000000
2157.000000
2163.000000
2160.000000
2158.000000
2150.000000
2142.000000
2142.000000
2134.000000
2133.000000
2134.000000
2128.000000
2128.000000
2128.000000
2135.000000
2135.000000
2132.000000
2137.000000
2135.000000
2139.000000
2135.000000
2137.000000
2145.000000
2138.000000
2145.000000
2149.000000
2148.000000
2150.000000
2145.000000
2144.000000
2137.000000
2130.000000
2133.000000
2129.000000
2130.000000
2128.000000
2128.000000
2128.000000
2131.000000
2131.000000
2129.000000
2132.000000
2137.000000
2142.000000
2139.000000
2140.000000
2138.000000
2134.000000
2137.000000
2138.000000
2139.000000
2141.000000
2145.000000
2147.000000
2149.000000
2150.000000
2151.000000
2149.000000
2145.000000
2141.000000
2133.000000
2129.000000
2127.000000
2122.000000
2112.000000
2111.000000
2109.000000
2112.000000
2110.000000
2112.000000
2098.000000
2113.000000
2112.000000
2116.000000
2119.000000
2118.000000
2114.000000
2122.000000
2125.000000
2126.000000
2130.000000
2122.000000
2126.000000
2127.000000
2125.000000
2121.000000
2117.000000
2113.000000
2111.000000
2104.000000
2099.000000
2099.000000
2102.000000
2101.000000
2096.000000
2096.000000
2096.000000
2096.000000
2098.000000
2103.000000
2106.000000
2113.000000
2118.000000
2115.000000
2123.000000
2121.000000
2122.000000
2118.000000
2113.000000
2112.000000
2112.000000
2109.000000
2103.000000
2098.000000
2096.000000
2091.000000
2094.000000
2093.000000
2090.000000
2079.000000
2093.000000
2090.000000
2090.000000
2087.000000
2096.000000
2091.000000
2093.000000
2095.000000
2095.000000
2094.000000
2094.000000
2093.000000
2102.000000
2093.000000
2093.000000
2091.000000
2095.000000
2094.000000
2094.000000
2093.000000
2092.000000
2087.000000
2085.000000
2071.000000
2083.000000
2081.000000
2077.000000
2076.000000
2075.000000
2071.000000
2065.000000
2064.000000
2065.000000
2066.000000
2069.000000
2071.000000
2071.000000
2074.000000
2075.000000
2069.000000
2065.000000
2064.000000
2064.000000
2060.000000
2057.000000
2064.000000
2046.000000
2047.000000
2053.000000
2032.000000
2039.000000
2037.000000
2038.000000
2039.000000
2038.000000
2041.000000
2041.000000
2042.000000
2046.000000
2045.000000
2047.000000
2053.000000
2055.000000
2055.000000
2065.000000
2055.000000
2058.000000
2062.000000
2057.000000
2058.000000
2061.000000
2059.000000
2065.000000
2067.000000
2074.000000
2079.000000
2078.000000
2081.000000
2078.000000
2067.000000
2061.000000
2055.000000
2043.000000
2035.000000
2032.000000
2026.000000
2017.000000
2013.000000
2010.000000
2010.000000
2005.000000
2005.000000
2009.000000
2009.000000
2014.000000
2019.000000
2025.000000
2032.000000
2033.000000
2032.000000
2032.000000
2032.000000
2033.000000
2030.000000
2037.000000
2032.000000
2032.000000
2032.000000
2032.000000
2030.000000
2026.000000
2019.000000
2023.000000
2017.000000
2019.000000
2021.000000
2017.000000
2019.000000
2018.000000
2017.000000
2017.000000
2018.000000
2018.000000
2021.000000
2019.000000
2018.000000
2013.000000
2001.000000
1999.000000
1996.000000
1990.000000
1991.000000
1989.000000
1989.000000
1988.000000
1987.000000
1990.000000
1994.000000
1995.000000
1999.000000
1998.000000
1997.000000
2000.000000
2010.000000
2010.000000
2007.000000
2012.000000
2013.000000
2015.000000
2010.000000
2002.000000
1995.000000
1988.000000
1978.000000
1979.000000
1973.000000
1968.000000
1969.000000
1970.000000
1970.000000
1970.000000
1969.000000
1979.000000
1971.000000
1974.000000
1972.000000
1968.000000
1968.000000
1970.000000
1974.000000
1970.000000
1968.000000
1968.000000
1968.000000
1969.000000
1971.000000
1973.000000
1983.000000
1978.000000
1984.000000
1969.000000
1971.000000
1965.000000
1968.000000
1963.000000
1957.000000
1955.000000
1955.000000
1955.000000
1954.000000
1950.000000
1947.000000
1954.000000
1949.000000
1942.000000
1946.000000
1947.000000
1950.000000
1947.000000
1949.000000
1951.000000
1949.000000
1952.000000
1953.000000
1955.000000
1955.000000
1955.000000
1951.000000
1949.000000
1949.000000
1946.000000
1943.000000
1946.000000
1941.000000
1937.000000
1939.000000
1938.000000
1939.000000
1938.000000
1939.000000
1943.000000
1943.000000
1943.000000
1947.000000
1945.000000
1942.000000
1941.000000
1937.000000
1938.000000
1936.000000
1935.000000
1936.000000
1934.000000
1934.000000
1936.000000
1935.000000
1930.000000
1936.000000
1936.000000
1938.000000
1938.000000
1941.000000
1942.000000
1941.000000
1941.000000
1932.000000
1925.000000
1925.000000
1922.000000
1920.000000
1919.000000
1920.000000
1922.000000
1923.000000
1920.000000
1923.000000
1918.000000
1915.000000
1915.000000
1906.000000
1911.000000
1909.000000
1918.000000
1919.000000
1919.000000
1919.000000
1914.000000
1920.000000
1910.000000
1910.000000
1907.000000
1904.000000
1904.000000
1904.000000
1901.000000
1901.000000
1902.000000
1903.000000
1904.000000
1904.000000
1904.000000
1904.000000
1904.000000
1904.000000
1903.000000
1901.000000
1903.000000
1902.000000
1902.000000
1903.000000
1899.000000
1904.000000
1904.000000
1904.000000
1905.000000
1907.000000
1907.000000
1905.000000
1904.000000
1903.000000
1895.000000
1890.000000
1885.000000
1878.000000
1877.000000
1872.000000
1873.000000
1872.000000
1872.000000
1873.000000
1876.000000
1879.000000
1883.000000
1892.000000
1890.000000
1902.000000
1888.000000
1891.000000
1891.000000
1891.000000
1898.000000
1893.000000
1891.000000
1887.000000
1879.000000
1879.000000
1878.000000
1871.000000
1870.000000
1865.000000
1863.000000
1861.000000
1861.000000
1870.000000
1867.000000
1870.000000
1870.000000
1872.000000
1877.000000
1878.000000
1891.000000
1882.000000
1882.000000
1887.000000
1879.000000
1874.000000
1871.000000
1866.000000
1860.000000
1854.000000
1845.000000
1845.000000
1843.000000
1845.000000
1852.000000
1843.000000
1840.000000
1845.000000
1840.000000
1842.000000
1848.000000
1856.000000
1866.000000
1872.000000
1876.000000
1876.000000
1872.000000
1867.000000
1862.000000
1847.000000
1840.000000
1831.000000
1828.000000
1814.000000
1827.000000
1827.000000
1829.000000
1828.000000
1836.000000
1840.000000
1833.000000
1839.000000
1840.000000
1841.000000
1844.000000
1846.000000
1844.000000
1849.000000
1847.000000
1846.000000
1850.000000
1849.000000
1845.000000
1840.000000
1838.000000
1833.000000
1828.000000
1824.000000
1823.000000
1825.000000
1823.000000
1825.000000
1826.000000
1827.000000
1829.000000
1833.000000
1837.000000
1835.000000
1835.000000
1837.000000
1839.000000
1830.000000
1836.000000
1837.000000
1837.000000
1831.000000
1831.000000
1827.000000
1830.000000
1830.000000
1831.000000
1830.000000
1829.000000
1826.000000
1822.000000
1819.000000
1815.000000
1813.000000
1823.000000
1813.000000
1821.000000
1811.000000
1810.000000
1809.000000
1810.000000
1808.000000
1798.000000
1809.000000
1808.000000
1801.000000
1817.000000
1814.000000
1814.000000
1814.000000
1811.000000
1815.000000
1810.000000
1817.000000
1817.000000
1819.000000
1833.000000
1819.000000
1812.000000
1811.000000
1813.000000
1814.000000
1817.000000
1823.000000
1823.000000
1829.000000
1824.000000
1817.000000
1813.000000
1808.000000
1807.000000
1799.000000
1795.000000
1794.000000
1789.000000
1795.000000
1796.000000
1801.000000
1805.000000
1808.000000
1809.000000
1808.000000
1808.000000
1815.000000
1815.000000
1819.000000
1827.000000
1827.000000
1837.000000
1847.000000
1854.000000
1851.000000
1845.000000
1843.000000
1833.000000
1821.000000
1814.000000
1809.000000
1800.000000
1795.000000
1793.000000
1797.000000
1799.000000
1799.000000
1804.000000
1807.000000
1808.000000
1808.000000
1808.000000
1809.000000
1815.000000
1815.000000
1822.000000
1830.000000
1833.000000
1840.000000
1833.000000
1834.000000
1825.000000
1819.000000
1814.000000
1809.000000
1808.000000
1804.000000
1799.000000
1799.000000
1795.000000
1794.000000
1795.000000
1797.000000
1802.000000
1803.000000
1803.000000
1803.000000
1806.000000
1809.000000
1809.000000
1813.000000
1811.000000
1811.000000
1810.000000
1808.000000
1806.000000
1802.000000
1797.000000
1795.000000
1794.000000
1796.000000
1793.000000
1794.000000
1795.000000
1795.000000
1793.000000
1795.000000
1795.000000
1802.000000
1799.000000
1804.000000
1808.000000
1807.000000
1805.000000
1808.000000
1808.000000
1807.000000
1808.000000
1813.000000
1815.000000
1815.000000
1812.000000
1808.000000
1805.000000
1798.000000
1797.000000
1795.000000
1793.000000
1793.000000
1797.000000
1806.000000
1807.000000
1808.000000
1810.000000
1808.000000
1808.000000
1803.000000
1802.000000
1794.000000
1793.000000
1789.000000
1787.000000
1789.000000
1787.000000
1786.000000
1787.000000
1789.000000
1791.000000
1794.000000
1806.000000
1808.000000
1808.000000
1809.000000
1808.000000
1806.000000
1794.000000
1787.000000
1781.000000
1776.000000
1777.000000
1778.000000
1780.000000
1787.000000
1787.000000
1795.000000
1803.000000
1808.000000
1808.000000
1808.000000
1808.000000
1806.000000
1797.000000
1794.000000
1794.000000
1791.000000
1792.000000
1792.000000
1794.000000
1793.000000
1793.000000
1791.000000
1790.000000
1787.000000
1785.000000
1783.000000
1785.000000
1790.000000
1792.000000
1797.000000
1802.000000
1795.000000
1795.000000
1792.000000
1790.000000
1790.000000
1793.000000
1802.000000
1808.000000
1818.000000
1829.000000
1840.000000
1843.000000
1846.000000
1845.000000
1842.000000
1840.000000
1840.000000
1834.000000
1829.000000
1827.000000
1826.000000
1829.000000
1836.000000
1838.000000
1845.000000
1854.000000
1867.000000
1883.000000
1889.000000
1901.000000
1901.000000
1904.000000
1904.000000
1893.000000
1878.000000
1867.000000
1856.000000
1840.000000
1830.000000
1819.000000
1827.000000
1822.000000
1823.000000
1823.000000
1828.000000
1831.000000
1833.000000
1833.000000
1840.000000
1840.000000
1840.000000
1834.000000
1841.000000
1841.000000
1844.000000
1840.000000
1840.000000
1838.000000
1837.000000
1835.000000
1838.000000
1838.000000
1840.000000
1840.000000
1840.000000
1843.000000
1841.000000
1846.000000
1847.000000
1857.000000
1865.000000
1869.000000
1870.000000
1873.000000
1857.000000
1863.000000
1857.000000
1849.000000
1845.000000
1835.000000
1842.000000
1829.000000
1825.000000
1824.000000
1823.000000
1827.000000
1834.000000
1837.000000
1842.000000
1849.000000
1851.000000
1857.000000
1859.000000
1863.000000
1868.000000
1872.000000
1872.000000
1874.000000
1867.000000
1863.000000
1859.000000
1855.000000
1849.000000
1851.000000
1842.000000
1842.000000
1839.000000
1841.000000
1843.000000
1856.000000
1864.000000
1869.000000
1876.000000
1875.000000
1878.000000
1872.000000
1862.000000
1854.000000
1844.000000
1843.000000
1842.000000
1840.000000
1839.000000
1840.000000
1843.000000
1851.000000
1857.000000
1865.000000
1872.000000
1873.000000
1875.000000
1872.000000
1872.000000
1872.000000
1876.000000
1879.000000
1887.000000
1890.000000
1898.000000
1902.000000
1894.000000
1894.000000
1879.000000
1867.000000
1856.000000
1845.000000
1840.000000
1840.000000
1834.000000
1834.000000
1835.000000
1840.000000
1841.000000
1846.000000
1856.000000
1858.000000
1858.000000
1865.000000
1859.000000
1863.000000
1865.000000
1864.000000
1863.000000
1861.000000
1857.000000
1858.000000
1858.000000
1861.000000
1866.000000
1872.000000
1878.000000
1879.000000
1890.000000
1897.000000
1899.000000
1903.000000
1904.000000
1904.000000
1900.000000
1897.000000
1887.000000
1889.000000
1886.000000
1877.000000
1873.000000
1871.000000
1867.000000
1862.000000
1858.000000
1861.000000
1861.000000
1872.000000
1874.000000
1883.000000
1894.000000
1901.000000
1905.000000
1909.000000
1917.000000
1915.000000
1919.000000
1918.000000
1918.000000
1910.000000
1909.000000
1906.000000
1904.000000
1900.000000
1888.000000
1879.000000
1872.000000
1870.000000
1865.000000
1866.000000
1868.000000
1871.000000
1875.000000
1879.000000
1882.000000
1887.000000
1890.000000
1904.000000
1888.000000
1885.000000
1890.000000
1894.000000
1897.000000
1904.000000
1904.000000
1910.000000
1911.000000
1919.000000
1911.000000
1904.000000
1882.000000
1891.000000
1882.000000
1875.000000
1875.000000
1873.000000
1878.000000
1882.000000
1891.000000
1895.000000
1897.000000
1898.000000
1904.000000
1901.000000
1900.000000
1902.000000
1901.000000
1904.000000
1911.000000
1914.000000
1924.000000
1933.000000
1941.000000
1950.000000
1958.000000
1963.000000
1957.000000
1949.000000
1940.000000
1931.000000
1921.000000
1913.000000
1900.000000
1890.000000
1882.000000
1877.000000
1877.000000
1878.000000
1890.000000
1904.000000
1923.000000
1946.000000
1963.000000
1975.000000
1984.000000
1978.000000
1966.000000
1945.000000
1927.000000
1909.000000
1902.000000
1895.000000
1893.000000
1873.000000
1888.000000
1890.000000
1892.000000
1893.000000
1898.000000
1899.000000
1902.000000
1904.000000
1909.000000
1911.000000
1919.000000
1922.000000
1919.000000
1927.000000
1929.000000
1932.000000
1936.000000
1936.000000
1946.000000
1944.000000
1941.000000
1943.000000
1937.000000
1935.000000
1930.000000
1929.000000
1925.000000
1923.000000
1926.000000
1934.000000
1936.000000
1947.000000
1959.000000
1973.000000
1968.000000
1967.000000
1963.000000
1955.000000
1936.000000
1931.000000
1920.000000
1919.000000
1920.000000
1920.000000
1915.000000
1926.000000
1924.000000
1922.000000
1922.000000
1929.000000
1937.000000
1953.000000
1970.000000
1991.000000
2001.000000
2018.000000
2015.000000
2018.000000
2005.000000
1990.000000
1969.000000
1955.000000
1937.000000
1925.000000
1917.000000
1913.000000
1911.000000
1920.000000
1927.000000
1936.000000
1939.000000
1943.000000
1947.000000
1945.000000
1936.000000
1935.000000
1930.000000
1924.000000
1923.000000
1927.000000
1930.000000
1937.000000
1943.000000
1958.000000
1973.000000
1985.000000
1993.000000
1997.000000
1991.000000
1983.000000
1968.000000
1957.000000
1939.000000
1934.000000
1921.000000
1915.000000
1905.000000
1907.000000
1911.000000
1921.000000
1931.000000
1939.000000
1949.000000
1954.000000
1954.000000
1955.000000
1961.000000
1957.000000
1968.000000
1967.000000
1968.000000
1962.000000
1963.000000
1958.000000
1954.000000
1954.000000
1953.000000
1954.000000
1955.000000
1961.000000
1973.000000
1981.000000
1994.000000
2000.000000
2000.000000
2000.000000
2000.000000
1998.000000
1996.000000
1985.000000
1968.000000
1947.000000
1929.000000
1914.000000
1905.000000
1900.000000
1899.000000
1895.000000
1893.000000
1896.000000
1890.000000
1887.000000
1887.000000
1884.000000
1879.000000
1881.000000
1887.000000
1879.000000
1881.000000
1889.000000
1895.000000
1907.000000
1915.000000
1921.000000
1936.000000
1938.000000
1945.000000
1942.000000
1942.000000
1938.000000
1931.000000
1915.000000
1899.000000
1879.000000
1870.000000
1866.000000
1875.000000
1875.000000
1881.000000
1899.000000
1911.000000
1929.000000
1937.000000
1953.000000
1954.000000
1937.000000
1922.000000
1905.000000
1889.000000
1866.000000
1848.000000
1840.000000
1829.000000
1838.000000
1822.000000
1820.000000
1827.000000
1838.000000
1852.000000
1867.000000
1875.000000
1878.000000
1881.000000
1875.000000
1872.000000
1861.000000
1856.000000
1851.000000
1849.000000
1854.000000
1856.000000
1860.000000
1873.000000
1874.000000
1891.000000
1902.000000
1903.000000
1899.000000
1892.000000
1884.000000
1882.000000
1886.000000
1891.000000
1889.000000
1883.000000
1875.000000
1859.000000
1847.000000
1838.000000
1826.000000
1813.000000
1810.000000
1809.000000
1808.000000
1813.000000
1820.000000
1831.000000
1843.000000
1857.000000
1872.000000
1887.000000
1904.000000
1920.000000
1927.000000
1933.000000
1932.000000
1924.000000
1911.000000
1893.000000
1872.000000
1841.000000
1814.000000
1802.000000
1791.000000
1787.000000
1791.000000
1801.000000
1814.000000
1829.000000
1845.000000
1862.000000
1881.000000
1906.000000
1918.000000
1923.000000
1929.000000
1930.000000
1924.000000
1917.000000
1918.000000
1904.000000
1892.000000
1875.000000
1865.000000
1851.000000
1841.000000
1845.000000
1845.000000
1850.000000
1851.000000
1856.000000
1866.000000
1877.000000
1886.000000
1891.000000
1889.000000
1875.000000
1861.000000
1846.000000
1827.000000
1813.000000
1808.000000
1799.000000
1795.000000
1791.000000
1795.000000
1796.000000
1807.000000
1813.000000
1826.000000
1835.000000
1836.000000
1840.000000
1841.000000
1851.000000
1851.000000
1862.000000
1858.000000
1856.000000
1851.000000
1847.000000
1842.000000
1839.000000
1833.000000
1826.000000
1825.000000
1821.000000
1819.000000
1818.000000
1815.000000
1822.000000
1825.000000
1825.000000
1827.000000
1829.000000
1835.000000
1840.000000
1854.000000
1870.000000
1876.000000
1883.000000
1877.000000
1868.000000
1861.000000
1861.000000
1860.000000
1856.000000
1847.000000
1839.000000
1821.000000
1810.000000
1799.000000
1792.000000
1783.000000
1786.000000
1783.000000
1795.000000
1808.000000
1827.000000
1846.000000
1857.000000
1870.000000
1872.000000
1872.000000
1867.000000
1856.000000
1854.000000
1845.000000
1839.000000
1828.000000
1813.000000
1808.000000
1797.000000
1789.000000
1782.000000
1765.000000
1755.000000
1744.000000
1747.000000
1749.000000
1773.000000
1785.000000
1797.000000
1811.000000
1818.000000
1836.000000
1844.000000
1856.000000
1868.000000
1872.000000
1877.000000
1887.000000
1890.000000
1889.000000
1885.000000
1881.000000
1867.000000
1851.000000
1834.000000
1824.000000
1818.000000
1816.000000
1818.000000
1834.000000
1831.000000
1840.000000
1844.000000
1846.000000
1856.000000
1865.000000
1891.000000
1914.000000
1929.000000
1934.000000
1923.000000
1905.000000
1892.000000
1877.000000
1872.000000
1870.000000
1871.000000
1872.000000
1872.000000
1868.000000
1861.000000
1857.000000
1851.000000
1830.000000
1840.000000
1826.000000
1824.000000
1826.000000
1838.000000
1849.000000
1856.000000
1872.000000
1887.000000
1902.000000
1910.000000
1924.000000
1921.000000
1929.000000
1936.000000
1943.000000
1952.000000
1955.000000
1947.000000
1941.000000
1931.000000
1922.000000
1920.000000
1925.000000
1933.000000
1942.000000
1960.000000
1983.000000
2000.000000
2019.000000
2029.000000
2037.000000
2055.000000
2064.000000
2079.000000
2089.000000
2098.000000
2112.000000
2124.000000
2131.000000
2136.000000
2134.000000
2132.000000
2116.000000
2096.000000
2069.000000
2045.000000
2034.000000
2019.000000
2007.000000
2005.000000
2001.000000
2007.000000
2016.000000
2026.000000
2034.000000
2043.000000
2062.000000
2066.000000
2083.000000
2085.000000
2086.000000
2085.000000
2079.000000
2069.000000
2064.000000
2064.000000
2059.000000
2064.000000
2059.000000
2044.000000
2035.000000
2006.000000
1988.000000
1986.000000
1987.000000
1997.000000
2009.000000
2006.000000
2010.000000
2010.000000
2001.000000
2010.000000
2024.000000
2031.000000
2036.000000
2038.000000
2042.000000
2055.000000
2064.000000
2082.000000
2096.000000
2096.000000
2090.000000
2077.000000
2064.000000
2042.000000
2026.000000
2015.000000
2005.000000
2002.000000
2005.000000
2012.000000
2018.000000
2027.000000
2017.000000
2000.000000
1985.000000
1969.000000
1951.000000
1938.000000
1930.000000
1944.000000
1971.000000
2003.000000
2027.000000
2032.000000
2018.000000
1995.000000
1970.000000
1955.000000
1955.000000
1967.000000
1970.000000
1973.000000
1982.000000
1990.000000
2004.000000
2025.000000
2039.000000
2067.000000
2091.000000
2106.000000
2122.000000
2128.000000
2128.000000
2113.000000
2086.000000
2042.000000
1991.000000
1951.000000
1922.000000
1907.000000
1905.000000
1914.000000
1933.000000
1957.000000
2001.000000
2031.000000
2045.000000
2032.000000
2017.000000
2008.000000
2016.000000
2035.000000
2074.000000
2100.000000
2131.000000
2170.000000
2199.000000
2202.000000
2165.000000
2101.000000
2020.000000
1959.000000
1923.000000
1917.000000
1908.000000
1894.000000
1856.000000
1808.000000
1777.000000
1764.000000
1793.000000
1875.000000
1961.000000
2047.000000
2112.000000
2147.000000
2169.000000
2128.000000
2097.000000
2053.000000
2002.000000
1976.000000
1942.000000
1927.000000
1951.000000
1990.000000
2038.000000
2026.000000
1968.000000
1877.000000
1788.000000
1723.000000
1716.000000
1782.000000
1890.000000
1998.000000
2115.000000
2205.000000
2286.000000
2307.000000
2276.000000
2189.000000
2066.000000
1935.000000
1845.000000
1745.000000
1691.000000
1671.000000
1683.000000
1728.000000
1779.000000
1806.000000
1817.000000
1815.000000
1807.000000
1813.000000
1807.000000
1840.000000
1870.000000
1927.000000
1972.000000
2000.000000
2009.000000
1989.000000
1925.000000
1847.000000
1776.000000
1739.000000
1744.000000
1814.000000
1917.000000
2035.000000
2149.000000
2223.000000
2262.000000
2269.000000
2256.000000
2206.000000
2169.000000
2076.000000
1919.000000
1817.000000
1722.000000
1655.000000
1621.000000
1588.000000
1557.000000
1516.000000
1473.000000
1445.000000
1435.000000
1463.000000
1519.000000
1693.000000
1850.000000
2033.000000
2128.000000
2141.000000
2075.000000
1985.000000
1904.000000
1859.000000
1847.000000
1834.000000
1791.000000
1726.000000
1647.000000
1583.000000
1535.000000
1560.000000
1619.000000
1694.000000
1755.000000
1802.000000
1856.000000
1885.000000
1933.000000
1971.000000
2066.000000
2138.000000
2239.000000
2320.000000
2353.000000
2349.000000
2263.000000
2106.000000
1949.000000
1766.000000
1611.000000
1516.000000
1518.000000
1595.000000
1716.000000
1823.000000
1956.000000
2047.000000
2090.000000
2077.000000
1998.000000
1862.000000
1707.000000
1535.000000
1422.000000
1264.000000
1203.000000
1171.000000
1200.000000
1251.000000
1406.000000
1535.000000
1714.000000
1857.000000
1983.000000
2070.000000
2159.000000
2218.000000
2258.000000
2279.000000
2265.000000
2201.000000
2118.000000
2022.000000
1947.000000
1907.000000
1911.000000
1949.000000
1985.000000
2015.000000
2026.000000
2025.000000
2003.000000
1923.000000
1783.000000
1557.000000
1364.000000
1226.000000
1166.000000
1200.000000
1265.000000
1339.000000
1416.000000
1444.000000
1475.000000
1534.000000
1653.000000
1794.000000
1966.000000
2064.000000
2160.000000
2181.000000
2145.000000
2059.000000
1970.000000
1887.000000
1808.000000
1758.000000
1738.000000
1747.000000
1799.000000
1847.000000
1890.000000
1909.000000
1917.000000
1907.000000
1910.000000
1936.000000
1968.000000
1835.000000
1879.000000
1905.000000
1893.000000
1856.000000
1809.000000
1773.000000
1733.000000
1655.000000
1558.000000
1444.000000
1343.000000
1233.000000
1136.000000
1094.000000
1155.000000
1269.000000
1465.000000
1648.000000
1954.000000
2180.000000
2352.000000
2419.000000
2363.000000
2192.000000
1951.000000
1685.000000
1455.000000
1305.000000
1248.000000
1266.000000
1353.000000
1469.000000
1621.000000
1782.000000
1921.000000
1998.000000
1934.000000
1819.000000
1725.000000
1663.000000
1648.000000
1667.000000
1743.000000
1808.000000
1883.000000
1861.000000
1738.000000
1573.000000
1385.000000
1058.000000
846.000000
720.000000
720.000000
829.000000
1086.000000
1386.000000
1658.000000
1970.000000
2182.000000
2320.000000
2397.000000
2439.000000
2439.000000
2384.000000
2285.000000
2155.000000
2017.000000
1931.000000
1766.000000
1671.000000
1616.000000
1584.000000
1573.000000
1582.000000
1607.000000
1638.000000
1663.000000
1638.000000
1568.000000
1459.000000
1351.000000
1282.000000
1254.000000
1275.000000
1345.000000
1393.000000
1455.000000
1511.000000
1556.000000
1567.000000
1535.000000
1533.000000
1535.000000
1553.000000
1593.000000
1645.000000
1719.000000
1822.000000
1909.000000
1954.000000
1913.000000
1778.000000
1555.000000
1410.000000
1264.000000
1215.000000
1267.000000
1408.000000
1610.000000
1764.000000
1862.000000
1904.000000
1922.000000
1927.000000
1941.000000
1953.000000
1945.000000
1917.000000
1833.000000
1702.000000
1562.000000
1424.000000
1583.000000
1471.000000
1398.000000
1380.000000
1430.000000
1520.000000
1647.000000
1771.000000
1873.000000
2000.000000
2059.000000
2099.000000
2097.000000
2046.000000
1959.000000
1874.000000
1744.000000
1634.000000
1525.000000
1442.000000
1363.000000
1311.000000
1267.000000
1232.000000
1202.000000
1184.000000
1201.000000
1262.000000
1355.000000
1474.000000
1622.000000
1770.000000
1862.000000
1856.000000
1728.000000
1473.000000
1268.000000
1094.000000
1049.000000
1107.000000
1245.000000
1426.000000
1697.000000
1916.000000
2077.000000
2131.000000
2078.000000
1922.000000
1726.000000
1489.000000
1313.000000
1211.000000
1200.000000
1290.000000
1426.000000
1576.000000
1738.000000
1857.000000
1936.000000
1958.000000
1926.000000
1867.000000
1802.000000
1750.000000
1732.000000
1751.000000
1776.000000
1754.000000
1689.000000
1571.000000
1344.000000
1090.000000
861.000000
730.000000
704.000000
784.000000
963.000000
1212.000000
1534.000000
1774.000000
2028.000000
2227.000000
2349.000000
2384.000000
2321.000000
2211.000000
2043.000000
1874.000000
1735.000000
1620.000000
1535.000000
1479.000000
1424.000000
1394.000000
1380.000000
1371.000000
1337.000000
1269.000000
1183.000000
1088.000000
1022.000000
1023.000000
1116.000000
1258.000000
1391.000000
1479.000000
1533.000000
1563.000000
1573.000000
1584.000000
1616.000000
1669.000000
1734.000000
1850.000000
1951.000000
2046.000000
2105.000000
2119.000000
2046.000000
1905.000000
1759.000000
1535.000000
1384.000000
1264.000000
1198.000000
1200.000000
1263.000000
1339.000000
1521.000000
1624.000000
1776.000000
1837.000000
1862.000000
1802.000000
1691.000000
1535.000000
1438.000000
1354.000000
1333.000000
1359.000000
1408.000000
1523.000000
1637.000000
1753.000000
1855.000000
1943.000000
2014.000000
2079.000000
2118.000000
2095.000000
1997.000000
1759.000000
1497.000000
1247.000000
1042.000000
928.000000
911.000000
992.000000
1152.000000
1333.000000
1564.000000
1766.000000
1909.000000
1968.000000
1937.000000
1831.000000
1697.000000
1605.000000
1487.000000
1424.000000
1404.000000
1403.000000
1434.000000
1438.000000
1418.000000
1408.000000
1431.000000
1489.000000
1594.000000
1718.000000
1856.000000
1983.000000
2073.000000
2140.000000
2130.000000
2063.000000
1929.000000
1783.000000
1650.000000
1562.000000
1519.000000
1504.000000
1495.000000
1479.000000
1433.000000
1413.000000
1406.000000
1419.000000
1457.000000
1553.000000
1609.000000
1633.000000
1636.000000
1636.000000
1616.000000
1491.000000
1329.000000
1142.000000
1020.000000
977.000000
1052.000000
1293.000000
1584.000000
1886.000000
2171.000000
2378.000000
2482.000000
2485.000000
2421.000000
2315.000000
2201.000000
2067.000000
1891.000000
1651.000000
1392.000000
1100.000000
913.000000
843.000000
880.000000
1023.000000
1193.000000
1424.000000
1702.000000
1903.000000
2068.000000
2178.000000
2250.000000
2224.000000
2099.000000
1918.000000
1719.000000
1535.000000
1427.000000
1392.000000
1395.000000
1456.000000
1533.000000
1602.000000
1584.000000
1463.000000
1311.000000
1166.000000
1086.000000
1117.000000
1274.000000
1535.000000
1824.000000
2185.000000
2444.000000
2619.000000
2652.000000
2593.000000
2384.000000
2173.000000
1952.000000
1751.000000
1585.000000
1452.000000
1362.000000
1325.000000
1314.000000
1298.000000
1271.000000
1197.000000
1053.000000
897.000000
619.000000
530.000000
586.000000
745.000000
1072.000000
1460.000000
1923.000000
2341.000000
2678.000000
2875.000000
2907.000000
2763.000000
2542.000000
2293.000000
2065.000000
1893.000000
1797.000000
1771.000000
1762.000000
1758.000000
1745.000000
1725.000000
1678.000000
1644.000000
1620.000000
1610.000000
1577.000000
1534.000000
1485.000000
1458.000000
1471.000000
1534.000000
1634.000000
1689.000000
1712.000000
1710.000000
1667.000000
1611.000000
1535.000000
1483.000000
1430.000000
1399.000000
1406.000000
1456.000000
1517.000000
1622.000000
1714.000000
1810.000000
1872.000000
1904.000000
1919.000000
1946.000000
1983.000000
1975.000000
1901.000000
1734.000000
1507.000000
1331.000000
1229.000000
1242.000000
1324.000000
1535.000000
1776.000000
1987.000000
2172.000000
2261.000000
2263.000000
2210.000000
2118.000000
2015.000000
1945.000000
1916.000000
1926.000000
1907.000000
1855.000000
1773.000000
1594.000000
1424.000000
1301.000000
1259.000000
1299.000000
1392.000000
1465.000000
1493.000000
1509.000000
1520.000000
1531.000000
1519.000000
1514.000000
1535.000000
1633.000000
1765.000000
1922.000000
2096.000000
2220.000000
2347.000000
2371.000000
2334.000000
2256.000000
2192.000000
2089.000000
2037.000000
1991.000000
1954.000000
1915.000000
1891.000000
1879.000000
1872.000000
1840.000000
1734.000000
1595.000000
1369.000000
1211.000000
1130.000000
1135.000000
1196.000000
1246.000000
1228.000000
1150.000000
1072.000000
999.000000
1018.000000
1124.000000
1297.000000
1457.000000
1636.000000
1754.000000
1791.000000
1815.000000
1871.000000
1963.000000
2112.000000
2292.000000
2495.000000
2677.000000
2789.000000
2862.000000
2864.000000
2798.000000
2671.000000
2526.000000
2320.000000
2141.000000
1975.000000
1871.000000
1750.000000
1620.000000
1424.000000
1142.000000
809.000000
549.000000
279.000000
224.000000
343.000000
595.000000
1011.000000
1457.000000
1903.000000
2287.000000
2537.000000
2625.000000
2559.000000
2436.000000
2277.000000
2128.000000
2022.000000
1995.000000
2029.000000
2101.000000
2148.000000
2155.000000
2107.000000
2032.000000
1949.000000
1863.000000
1788.000000
1744.000000
1724.000000
1672.000000
1607.000000
1535.000000
1502.000000
1511.000000
1535.000000
1535.000000
1510.000000
1476.000000
1469.000000
1497.000000
1553.000000
1619.000000
1705.000000
1787.000000
1846.000000
1871.000000
1858.000000
1776.000000
1707.000000
1616.000000
1595.000000
1609.000000
1664.000000
1712.000000
1765.000000
1808.000000
1895.000000
1966.000000
2000.000000
1963.000000
1882.000000
1802.000000
1739.000000
1725.000000
1771.000000
1872.000000
1986.000000
2037.000000
1995.000000
1862.000000
1730.000000
1648.000000
1627.000000
1645.000000
1675.000000
1715.000000
1802.000000
1897.000000
1999.000000
2090.000000
2130.000000
2112.000000
2019.000000
1883.000000
1713.000000
1571.000000
1496.000000
1525.000000
1659.000000
1849.000000
2032.000000
2274.000000
2436.000000
2538.000000
2559.000000
2528.000000
2439.000000
2300.000000
2167.000000
1971.000000
1770.000000
1595.000000
1460.000000
1412.000000
1429.000000
1482.000000
1629.000000
1773.000000
1918.000000
2038.000000
2125.000000
2166.000000
2174.000000
2142.000000
2058.000000
1861.000000
1628.000000
1389.000000
1216.000000
1119.000000
1131.000000
1259.000000
1447.000000
1728.000000
1984.000000
2210.000000
2368.000000
2497.000000
2525.000000
2486.000000
2413.000000
2320.000000
2184.000000
2064.000000
1931.000000
1829.000000
1744.000000
1710.000000
1698.000000
1713.000000
1735.000000
1738.000000
1719.000000
1711.000000
1711.000000
1743.000000
1803.000000
1871.000000
1925.000000
1994.000000
2016.000000
2031.000000
2033.000000
2032.000000
2032.000000
2027.000000
1997.000000
1968.000000
1933.000000
1903.000000
1873.000000
1858.000000
1854.000000
1852.000000
1843.000000
1831.000000
1792.000000
1765.000000
1713.000000
1691.000000
1689.000000
1707.000000
1743.000000
1785.000000
1818.000000
1850.000000
1871.000000
1883.000000
1890.000000
1897.000000
1899.000000
1904.000000
1907.000000
1913.000000
1904.000000
1888.000000
1874.000000
1850.000000
1823.000000
1790.000000
1747.000000
1723.000000
1710.000000
1715.000000
1743.000000
1767.000000
1808.000000
1826.000000
1853.000000
1869.000000
1875.000000
1863.000000
1849.000000
1823.000000
1807.000000
1792.000000
1791.000000
1793.000000
1806.000000
1809.000000
1825.000000
1845.000000
1872.000000
1908.000000
1942.000000
1959.000000
1947.000000
1882.000000
1810.000000
1746.000000
1710.000000
1704.000000
1727.000000
1781.000000
1842.000000
1891.000000
1927.000000
1957.000000
1973.000000
1977.000000
1955.000000
1917.000000
1875.000000
1846.000000
1837.000000
1850.000000
1873.000000
1911.000000
1936.000000
1966.000000
1973.000000
1975.000000
1973.000000
1965.000000
1953.000000
1936.000000
1920.000000
1904.000000
1894.000000
1872.000000
1861.000000
1856.000000
1854.000000
1855.000000
1855.000000
1855.000000
1853.000000
1866.000000
1857.000000
1859.000000
1871.000000
1853.000000
1850.000000
1840.000000
1840.000000
1840.000000
1847.000000
1858.000000
1872.000000
1877.000000
1882.000000
1883.000000
1878.000000
1879.000000
1878.000000
1883.000000
1875.000000
1872.000000
1868.000000
1867.000000
1865.000000
1867.000000
1872.000000
1879.000000
1886.000000
1888.000000
1888.000000
1891.000000
1882.000000
1871.000000
1856.000000
1841.000000
1840.000000
1840.000000
1856.000000
1872.000000
1884.000000
1903.000000
1913.000000
1921.000000
1936.000000
1926.000000
1920.000000
1911.000000
1891.000000
1881.000000
1857.000000
1831.000000
1792.000000
1776.000000
1745.000000
1750.000000
1776.000000
1808.000000
1853.000000
1891.000000
1911.000000
1933.000000
1939.000000
1943.000000
1945.000000
1941.000000
1936.000000
1936.000000
1919.000000
1899.000000
1875.000000
1865.000000
1846.000000
1837.000000
1833.000000
1834.000000
1839.000000
1846.000000
1856.000000
1867.000000
1883.000000
1902.000000
1907.000000
1916.000000
1923.000000
1934.000000
1933.000000
1930.000000
1927.000000
1916.000000
1904.000000
1894.000000
1886.000000
1877.000000
1871.000000
1863.000000
1858.000000
1855.000000
1852.000000
1854.000000
1858.000000
1862.000000
1872.000000
1885.000000
1889.000000
1888.000000
1891.000000
1889.000000
1894.000000
1893.000000
1881.000000
1895.000000
1897.000000
1904.000000
1902.000000
1901.000000
1895.000000
1890.000000
1888.000000
1887.000000
1874.000000
